PE UV       SUBTECH     SPECTRUM    ASCII       PEDS        4.00        
   -1
100% or 0 Absorbance Baseline.Correction.Raw.asc
26/04/18
23:52:26.00
26/04/18
23:52:26.00
Analyst

800.000000
1
Lambda 750
750N9121602
PerkinElmer UV WinLab 6.0.3.0730 / 1.61.00 Lambda 900

0
0
3350/servo 860.8/2
0
0
UV/VIS
0
1
1
uv/vis/nir detector
0
0
0
0
Program
Program
3350/servo 860.8/2
3350/0.2 860.8/0.2
3350/0.2 860.8/0.2
0
1
 
 
 
0
 
860.8
319.2
860.8
Front
100
 
 
 
0
0
0
 
0
 
 
 
0
 
 
0
0
0
0
0
 
 
 
 
0
0


#HDR
-1
-1
#GR
nm
A
1.0
0.0
2500.000000
-1.000000
1701
8
10.000000
-1.800331
#DATA
2500.000000	0.158647
2499.000000	0.129011
2498.000000	0.219724
2497.000000	0.163502
2496.000000	0.133485
2495.000000	0.095342
2494.000000	0.067093
2493.000000	0.086095
2492.000000	0.151575
2491.000000	0.121389
2490.000000	0.153113
2489.000000	0.139487
2488.000000	0.049344
2487.000000	0.013721
2486.000000	0.124147
2485.000000	0.037425
2484.000000	0.042281
2483.000000	0.122258
2482.000000	0.067250
2481.000000	0.148196
2480.000000	0.130963
2479.000000	0.083587
2478.000000	0.044691
2477.000000	0.182271
2476.000000	0.108016
2475.000000	0.165587
2474.000000	0.266299
2473.000000	0.097788
2472.000000	0.037615
2471.000000	0.110843
2470.000000	-0.008914
2469.000000	0.105979
2468.000000	0.164181
2467.000000	0.061916
2466.000000	0.019196
2465.000000	0.131331
2464.000000	0.039176
2463.000000	0.050001
2462.000000	-0.005444
2461.000000	0.135235
2460.000000	0.093337
2459.000000	0.145554
2458.000000	0.068158
2457.000000	0.110813
2456.000000	0.109347
2455.000000	0.022721
2454.000000	0.106601
2453.000000	0.135991
2452.000000	0.160262
2451.000000	0.090009
2450.000000	0.051415
2449.000000	0.085520
2448.000000	0.171241
2447.000000	0.063624
2446.000000	0.109309
2445.000000	0.078868
2444.000000	0.115010
2443.000000	0.098635
2442.000000	0.031644
2441.000000	0.055689
2440.000000	0.006506
2439.000000	0.094278
2438.000000	0.042668
2437.000000	0.156526
2436.000000	0.141573
2435.000000	0.101037
2434.000000	0.037191
2433.000000	0.075981
2432.000000	0.112495
2431.000000	0.075850
2430.000000	0.050260
2429.000000	0.037252
2428.000000	0.048174
2427.000000	0.081864
2426.000000	0.031461
2425.000000	0.011205
2424.000000	0.018055
2423.000000	0.132934
2422.000000	0.044273
2421.000000	0.056058
2420.000000	0.110861
2419.000000	0.078318
2418.000000	0.070441
2417.000000	0.085189
2416.000000	0.092149
2415.000000	0.058729
2414.000000	0.065062
2413.000000	0.065825
2412.000000	0.059599
2411.000000	0.049048
2410.000000	0.093168
2409.000000	0.122088
2408.000000	0.084258
2407.000000	0.087695
2406.000000	0.039040
2405.000000	0.087722
2404.000000	0.117076
2403.000000	0.093862
2402.000000	0.071478
2401.000000	0.092846
2400.000000	0.189329
2399.000000	0.161311
2398.000000	0.075371
2397.000000	0.038521
2396.000000	0.095899
2395.000000	0.095080
2394.000000	0.053662
2393.000000	0.126083
2392.000000	0.152466
2391.000000	0.068380
2390.000000	0.053280
2389.000000	0.018278
2388.000000	0.065060
2387.000000	0.067911
2386.000000	0.064043
2385.000000	0.191522
2384.000000	0.175266
2383.000000	0.067026
2382.000000	0.016552
2381.000000	0.076633
2380.000000	0.071182
2379.000000	0.039276
2378.000000	0.074784
2377.000000	0.084957
2376.000000	0.032521
2375.000000	0.112899
2374.000000	0.037766
2373.000000	0.038577
2372.000000	0.002084
2371.000000	0.089802
2370.000000	0.114052
2369.000000	0.028977
2368.000000	0.124715
2367.000000	0.152707
2366.000000	0.118690
2365.000000	0.101634
2364.000000	0.019225
2363.000000	0.059916
2362.000000	0.106061
2361.000000	0.054154
2360.000000	0.076400
2359.000000	0.021937
2358.000000	0.128897
2357.000000	0.054137
2356.000000	0.042212
2355.000000	0.068280
2354.000000	0.092024
2353.000000	0.136534
2352.000000	0.046534
2351.000000	0.049672
2350.000000	0.078475
2349.000000	0.115531
2348.000000	0.102393
2347.000000	0.126191
2346.000000	0.125174
2345.000000	0.056823
2344.000000	-0.018797
2343.000000	0.076026
2342.000000	0.107722
2341.000000	0.077890
2340.000000	0.063494
2339.000000	0.049077
2338.000000	0.121868
2337.000000	0.058683
2336.000000	0.051026
2335.000000	0.024421
2334.000000	0.174380
2333.000000	0.092327
2332.000000	0.107523
2331.000000	0.185722
2330.000000	0.119172
2329.000000	0.042425
2328.000000	0.071349
2327.000000	0.083158
2326.000000	0.085015
2325.000000	0.069313
2324.000000	0.076999
2323.000000	0.172190
2322.000000	0.035068
2321.000000	0.078334
2320.000000	0.049938
2319.000000	0.137196
2318.000000	0.059129
2317.000000	0.175743
2316.000000	0.288646
2315.000000	0.150364
2314.000000	0.085866
2313.000000	-0.027211
2312.000000	0.116624
2311.000000	-0.019504
2310.000000	0.165897
2309.000000	0.108544
2308.000000	0.010921
2307.000000	0.193859
2306.000000	0.069815
2305.000000	0.069087
2304.000000	0.088023
2303.000000	0.071748
2302.000000	0.178471
2301.000000	0.139074
2300.000000	0.105942
2299.000000	0.031631
2298.000000	-0.007495
2297.000000	0.024813
2296.000000	0.056612
2295.000000	0.057769
2294.000000	0.214046
2293.000000	0.133756
2292.000000	0.054920
2291.000000	-0.018771
2290.000000	0.154281
2289.000000	0.034291
2288.000000	0.093884
2287.000000	0.098132
2286.000000	0.046343
2285.000000	0.150592
2284.000000	0.059363
2283.000000	0.074717
2282.000000	-0.001148
2281.000000	0.161878
2280.000000	0.039021
2279.000000	0.147605
2278.000000	0.233273
2277.000000	0.143460
2276.000000	0.030538
2275.000000	0.066652
2274.000000	0.116879
2273.000000	0.108376
2272.000000	0.140243
2271.000000	0.120741
2270.000000	0.089598
2269.000000	0.102614
2268.000000	0.045101
2267.000000	0.045491
2266.000000	-0.000963
2265.000000	0.102796
2264.000000	0.028070
2263.000000	0.148911
2262.000000	0.083196
2261.000000	0.124205
2260.000000	0.037656
2259.000000	0.072359
2258.000000	0.084898
2257.000000	-0.020350
2256.000000	0.038776
2255.000000	0.077352
2254.000000	0.078032
2253.000000	0.148706
2252.000000	0.027304
2251.000000	0.055694
2250.000000	-0.005086
2249.000000	0.094933
2248.000000	0.055757
2247.000000	0.205614
2246.000000	0.124327
2245.000000	0.041966
2244.000000	-0.016917
2243.000000	0.036636
2242.000000	0.041254
2241.000000	0.047397
2240.000000	0.083886
2239.000000	0.070002
2238.000000	0.044168
2237.000000	0.105513
2236.000000	0.085795
2235.000000	0.090849
2234.000000	0.052386
2233.000000	0.102788
2232.000000	0.157435
2231.000000	0.069244
2230.000000	0.101081
2229.000000	0.159661
2228.000000	0.169030
2227.000000	0.077282
2226.000000	0.108086
2225.000000	0.254640
2224.000000	0.179590
2223.000000	0.076937
2222.000000	0.031333
2221.000000	0.054547
2220.000000	0.075006
2219.000000	0.132166
2218.000000	0.076217
2217.000000	-0.006605
2216.000000	0.017626
2215.000000	0.057074
2214.000000	0.098070
2213.000000	0.033599
2212.000000	0.058815
2211.000000	0.086611
2210.000000	0.076757
2209.000000	0.061057
2208.000000	0.085607
2207.000000	0.033247
2206.000000	0.059726
2205.000000	0.100770
2204.000000	0.125074
2203.000000	0.155421
2202.000000	0.123470
2201.000000	0.030084
2200.000000	0.071502
2199.000000	0.080072
2198.000000	0.021206
2197.000000	0.082102
2196.000000	0.078340
2195.000000	0.068045
2194.000000	0.084058
2193.000000	0.056928
2192.000000	0.041005
2191.000000	0.118219
2190.000000	0.085460
2189.000000	0.073240
2188.000000	0.091736
2187.000000	0.062821
2186.000000	0.102275
2185.000000	0.079388
2184.000000	0.058972
2183.000000	0.026732
2182.000000	0.053238
2181.000000	0.131428
2180.000000	0.101303
2179.000000	0.082223
2178.000000	0.071694
2177.000000	0.102575
2176.000000	0.019471
2175.000000	0.029967
2174.000000	0.089209
2173.000000	0.055876
2172.000000	0.069057
2171.000000	0.077213
2170.000000	0.068312
2169.000000	0.025210
2168.000000	0.134656
2167.000000	0.122623
2166.000000	0.131465
2165.000000	0.189331
2164.000000	0.152821
2163.000000	0.039657
2162.000000	0.008452
2161.000000	0.062963
2160.000000	0.055860
2159.000000	0.029572
2158.000000	0.030111
2157.000000	0.066177
2156.000000	0.040774
2155.000000	0.129592
2154.000000	0.048861
2153.000000	0.052228
2152.000000	0.035501
2151.000000	0.091143
2150.000000	0.071447
2149.000000	0.110920
2148.000000	0.175594
2147.000000	0.150080
2146.000000	0.044633
2145.000000	0.092236
2144.000000	0.006404
2143.000000	0.030665
2142.000000	0.045508
2141.000000	-0.008519
2140.000000	0.123498
2139.000000	0.047745
2138.000000	0.060483
2137.000000	0.036604
2136.000000	0.069454
2135.000000	0.023249
2134.000000	0.144347
2133.000000	0.137161
2132.000000	0.057315
2131.000000	0.057760
2130.000000	0.047770
2129.000000	0.022933
2128.000000	0.068244
2127.000000	0.019602
2126.000000	0.039792
2125.000000	0.006030
2124.000000	0.119343
2123.000000	0.038029
2122.000000	0.083047
2121.000000	0.049368
2120.000000	0.020325
2119.000000	0.104982
2118.000000	-0.005380
2117.000000	0.063655
2116.000000	0.052976
2115.000000	0.073027
2114.000000	0.089844
2113.000000	0.157046
2112.000000	0.113337
2111.000000	0.052794
2110.000000	0.025952
2109.000000	0.096944
2108.000000	0.003687
2107.000000	0.090378
2106.000000	0.005844
2105.000000	0.003611
2104.000000	0.135495
2103.000000	0.037800
2102.000000	0.077324
2101.000000	0.007329
2100.000000	0.132834
2099.000000	0.047787
2098.000000	0.050609
2097.000000	0.012224
2096.000000	0.140663
2095.000000	0.036546
2094.000000	0.051307
2093.000000	0.054245
2092.000000	0.085382
2091.000000	0.144626
2090.000000	0.155745
2089.000000	0.147775
2088.000000	0.027440
2087.000000	0.025410
2086.000000	0.012878
2085.000000	0.079935
2084.000000	0.054709
2083.000000	0.031036
2082.000000	0.035811
2081.000000	0.026367
2080.000000	0.074851
2079.000000	0.063228
2078.000000	0.080294
2077.000000	0.010861
2076.000000	0.109483
2075.000000	0.046065
2074.000000	0.091366
2073.000000	0.103208
2072.000000	0.086643
2071.000000	0.024678
2070.000000	0.034148
2069.000000	0.116486
2068.000000	0.060200
2067.000000	0.073378
2066.000000	0.056116
2065.000000	0.047476
2064.000000	0.079873
2063.000000	0.031239
2062.000000	0.034089
2061.000000	0.015477
2060.000000	0.091328
2059.000000	0.075787
2058.000000	0.043852
2057.000000	0.044400
2056.000000	0.042998
2055.000000	0.060707
2054.000000	0.065675
2053.000000	0.076724
2052.000000	0.097228
2051.000000	0.057356
2050.000000	0.027081
2049.000000	0.022169
2048.000000	0.066922
2047.000000	0.016839
2046.000000	0.108342
2045.000000	0.093160
2044.000000	0.061141
2043.000000	0.048358
2042.000000	0.064569
2041.000000	0.039411
2040.000000	0.081670
2039.000000	0.054711
2038.000000	0.083795
2037.000000	0.096296
2036.000000	0.067427
2035.000000	0.039651
2034.000000	0.044867
2033.000000	0.089897
2032.000000	0.030893
2031.000000	0.002043
2030.000000	0.027782
2029.000000	0.056323
2028.000000	0.072280
2027.000000	0.045959
2026.000000	0.039258
2025.000000	0.034867
2024.000000	0.097293
2023.000000	0.094085
2022.000000	0.137084
2021.000000	0.140634
2020.000000	0.057180
2019.000000	0.050460
2018.000000	0.068824
2017.000000	0.052641
2016.000000	0.048288
2015.000000	0.070732
2014.000000	0.010009
2013.000000	0.042779
2012.000000	0.065475
2011.000000	0.031438
2010.000000	0.031564
2009.000000	0.040943
2008.000000	0.052107
2007.000000	0.057415
2006.000000	0.111332
2005.000000	0.117491
2004.000000	0.093464
2003.000000	0.032449
2002.000000	0.052879
2001.000000	0.089258
2000.000000	0.074243
1999.000000	0.047279
1998.000000	0.031072
1997.000000	0.012939
1996.000000	0.046909
1995.000000	0.061572
1994.000000	0.056580
1993.000000	0.070499
1992.000000	0.065092
1991.000000	0.091183
1990.000000	0.055568
1989.000000	0.045556
1988.000000	0.053507
1987.000000	0.050604
1986.000000	0.066616
1985.000000	0.105715
1984.000000	0.094638
1983.000000	0.049785
1982.000000	0.029798
1981.000000	0.051695
1980.000000	0.026826
1979.000000	0.027251
1978.000000	0.042880
1977.000000	0.040936
1976.000000	0.061642
1975.000000	0.060028
1974.000000	0.041270
1973.000000	0.007107
1972.000000	0.050754
1971.000000	0.071598
1970.000000	0.092876
1969.000000	0.115053
1968.000000	0.089268
1967.000000	0.042660
1966.000000	0.019389
1965.000000	0.044708
1964.000000	0.036281
1963.000000	0.028069
1962.000000	0.074932
1961.000000	0.075604
1960.000000	0.063773
1959.000000	0.018415
1958.000000	0.028628
1957.000000	-0.003207
1956.000000	0.042941
1955.000000	0.042216
1954.000000	0.101718
1953.000000	0.117799
1952.000000	0.075992
1951.000000	0.043554
1950.000000	0.090563
1949.000000	0.049531
1948.000000	0.051893
1947.000000	0.073350
1946.000000	0.045647
1945.000000	0.080324
1944.000000	-0.004389
1943.000000	0.098239
1942.000000	0.109959
1941.000000	0.082652
1940.000000	0.087832
1939.000000	0.032299
1938.000000	0.231534
1937.000000	0.068076
1936.000000	0.011385
1935.000000	0.063698
1934.000000	0.216760
1933.000000	0.228076
1932.000000	0.289698
1931.000000	0.221401
1930.000000	0.086246
1929.000000	0.075264
1928.000000	0.345753
1927.000000	0.109306
1926.000000	0.088820
1925.000000	0.069943
1924.000000	0.129809
1923.000000	-0.000678
1922.000000	0.246106
1921.000000	-0.029047
1920.000000	0.082051
1919.000000	0.065055
1918.000000	0.283907
1917.000000	0.228426
1916.000000	0.173346
1915.000000	0.719909
1914.000000	0.215207
1913.000000	0.009489
1912.000000	0.298509
1911.000000	0.151318
1910.000000	0.455075
1909.000000	0.254201
1908.000000	-0.068131
1907.000000	0.265739
1906.000000	0.050339
1905.000000	0.258033
1904.000000	-0.057054
1903.000000	0.429705
1902.000000	0.103420
1901.000000	0.363489
1900.000000	0.468811
1899.000000	0.148373
1898.000000	0.271615
1897.000000	0.242317
1896.000000	0.191798
1895.000000	0.231736
1894.000000	0.320843
1893.000000	0.335469
1892.000000	-0.066078
1891.000000	0.054455
1890.000000	0.411130
1889.000000	0.206404
1888.000000	0.096979
1887.000000	0.126832
1886.000000	0.118898
1885.000000	0.292682
1884.000000	0.040897
1883.000000	0.193058
1882.000000	-0.018984
1881.000000	0.358862
1880.000000	-0.000005
1879.000000	0.299122
1878.000000	0.275910
1877.000000	0.207643
1876.000000	0.113549
1875.000000	-0.007955
1874.000000	0.168704
1873.000000	0.151250
1872.000000	0.036968
1871.000000	0.115374
1870.000000	-0.009467
1869.000000	0.151801
1868.000000	0.245176
1867.000000	0.128389
1866.000000	0.004472
1865.000000	0.148235
1864.000000	0.283245
1863.000000	0.240469
1862.000000	0.278559
1861.000000	0.237375
1860.000000	0.105438
1859.000000	-0.032321
1858.000000	0.199512
1857.000000	-0.012352
1856.000000	0.157545
1855.000000	0.111063
1854.000000	0.031280
1853.000000	0.292906
1852.000000	0.175893
1851.000000	0.193211
1850.000000	0.450734
1849.000000	0.153597
1848.000000	0.392348
1847.000000	0.327044
1846.000000	0.351869
1845.000000	0.166745
1844.000000	0.043522
1843.000000	0.134975
1842.000000	0.074560
1841.000000	0.190498
1840.000000	0.168152
1839.000000	0.150947
1838.000000	0.084712
1837.000000	0.097703
1836.000000	0.190401
1835.000000	0.329264
1834.000000	0.106786
1833.000000	0.034240
1832.000000	0.340750
1831.000000	0.326570
1830.000000	0.078025
1829.000000	0.131954
1828.000000	0.240347
1827.000000	0.273486
1826.000000	0.150120
1825.000000	0.024405
1824.000000	0.138979
1823.000000	0.065123
1822.000000	0.146843
1821.000000	0.095249
1820.000000	0.108648
1819.000000	0.081829
1818.000000	0.113925
1817.000000	0.138605
1816.000000	0.079161
1815.000000	0.080350
1814.000000	0.116675
1813.000000	0.194028
1812.000000	0.186290
1811.000000	0.221006
1810.000000	0.145226
1809.000000	0.102632
1808.000000	0.234791
1807.000000	0.225134
1806.000000	0.054336
1805.000000	0.067842
1804.000000	0.238086
1803.000000	0.151979
1802.000000	0.052085
1801.000000	0.014454
1800.000000	0.047540
1799.000000	0.081865
1798.000000	0.059033
1797.000000	0.146175
1796.000000	0.064953
1795.000000	0.028910
1794.000000	0.184130
1793.000000	0.130727
1792.000000	0.072783
1791.000000	0.052364
1790.000000	0.108826
1789.000000	0.313856
1788.000000	0.301335
1787.000000	0.204871
1786.000000	0.058227
1785.000000	0.061285
1784.000000	0.139234
1783.000000	0.132105
1782.000000	0.131263
1781.000000	0.246686
1780.000000	0.056566
1779.000000	0.148484
1778.000000	0.184921
1777.000000	-0.001427
1776.000000	0.225061
1775.000000	0.033558
1774.000000	0.150871
1773.000000	0.122581
1772.000000	0.236010
1771.000000	0.474709
1770.000000	0.260739
1769.000000	0.272063
1768.000000	0.351433
1767.000000	0.239894
1766.000000	0.303578
1765.000000	0.076185
1764.000000	0.380219
1763.000000	0.153447
1762.000000	0.253602
1761.000000	0.239980
1760.000000	0.312368
1759.000000	0.332389
1758.000000	0.789299
1757.000000	0.250970
1756.000000	0.162251
1755.000000	0.186947
1754.000000	0.805561
1753.000000	0.088986
1752.000000	0.206048
1751.000000	0.839760
1750.000000	0.704116
1749.000000	0.153419
1748.000000	-0.406703
1747.000000	-0.227465
1746.000000	0.266498
1745.000000	0.087524
1744.000000	0.303718
1743.000000	0.518196
1742.000000	0.316531
1741.000000	0.312802
1740.000000	0.008228
1739.000000	0.083921
1738.000000	-0.013104
1737.000000	0.328526
1736.000000	0.492838
1735.000000	0.582940
1734.000000	10.000000
1733.000000	0.520489
1732.000000	0.152686
1731.000000	0.710879
1730.000000	0.539255
1729.000000	0.477959
1728.000000	0.452147
1727.000000	0.048742
1726.000000	0.198653
1725.000000	0.264723
1724.000000	0.220492
1723.000000	10.000000
1722.000000	0.138184
1721.000000	0.793873
1720.000000	0.334333
1719.000000	1.629098
1718.000000	10.000000
1717.000000	0.472979
1716.000000	0.258267
1715.000000	1.375419
1714.000000	1.040424
1713.000000	0.339630
1712.000000	0.136694
1711.000000	-0.019039
1710.000000	0.996195
1709.000000	1.127599
1708.000000	10.000000
1707.000000	-0.184178
1706.000000	0.438827
1705.000000	0.232833
1704.000000	0.624112
1703.000000	0.502058
1702.000000	10.000000
1701.000000	0.588833
1700.000000	0.370959
1699.000000	0.088958
1698.000000	0.396716
1697.000000	0.695466
1696.000000	0.711959
1695.000000	0.736392
1694.000000	10.000000
1693.000000	0.140168
1692.000000	0.235435
1691.000000	-0.108812
1690.000000	-0.306958
1689.000000	0.270475
1688.000000	0.236294
1687.000000	0.372960
1686.000000	10.000000
1685.000000	10.000000
1684.000000	10.000000
1683.000000	0.648287
1682.000000	10.000000
1681.000000	10.000000
1680.000000	-0.037743
1679.000000	0.145531
1678.000000	1.120967
1677.000000	-0.016790
1676.000000	0.177553
1675.000000	0.185353
1674.000000	-0.088046
1673.000000	0.639613
1672.000000	0.177682
1671.000000	0.229858
1670.000000	0.032891
1669.000000	10.000000
1668.000000	0.083496
1667.000000	-0.400208
1666.000000	10.000000
1665.000000	0.363375
1664.000000	10.000000
1663.000000	0.598822
1662.000000	10.000000
1661.000000	-0.020593
1660.000000	-0.259968
1659.000000	0.478241
1658.000000	-0.035190
1657.000000	0.033032
1656.000000	-0.153956
1655.000000	10.000000
1654.000000	10.000000
1653.000000	0.522036
1652.000000	-0.035117
1651.000000	-0.341398
1650.000000	0.772224
1649.000000	10.000000
1648.000000	10.000000
1647.000000	10.000000
1646.000000	10.000000
1645.000000	10.000000
1644.000000	10.000000
1643.000000	-0.041025
1642.000000	-0.388125
1641.000000	10.000000
1640.000000	0.800522
1639.000000	0.385308
1638.000000	0.413070
1637.000000	0.131636
1636.000000	-0.068541
1635.000000	10.000000
1634.000000	10.000000
1633.000000	10.000000
1632.000000	10.000000
1631.000000	10.000000
1630.000000	10.000000
1629.000000	0.890472
1628.000000	-0.550682
1627.000000	-0.452404
1626.000000	10.000000
1625.000000	10.000000
1624.000000	0.372308
1623.000000	0.451815
1622.000000	0.330925
1621.000000	0.100919
1620.000000	0.341049
1619.000000	0.551967
1618.000000	0.104375
1617.000000	0.005114
1616.000000	1.551510
1615.000000	-0.208580
1614.000000	-0.195959
1613.000000	10.000000
1612.000000	-0.591252
1611.000000	-0.612668
1610.000000	10.000000
1609.000000	10.000000
1608.000000	10.000000
1607.000000	10.000000
1606.000000	10.000000
1605.000000	10.000000
1604.000000	0.063854
1603.000000	-0.211883
1602.000000	10.000000
1601.000000	10.000000
1600.000000	10.000000
1599.000000	10.000000
1598.000000	10.000000
1597.000000	0.525016
1596.000000	-0.981726
1595.000000	-1.088622
1594.000000	-0.639373
1593.000000	0.263831
1592.000000	10.000000
1591.000000	0.547418
1590.000000	0.159704
1589.000000	-0.101409
1588.000000	0.535712
1587.000000	10.000000
1586.000000	10.000000
1585.000000	10.000000
1584.000000	10.000000
1583.000000	0.461668
1582.000000	-0.219153
1581.000000	-0.206847
1580.000000	0.596485
1579.000000	0.328464
1578.000000	0.323778
1577.000000	-0.191192
1576.000000	-0.848888
1575.000000	-0.366959
1574.000000	10.000000
1573.000000	0.243038
1572.000000	10.000000
1571.000000	-1.436336
1570.000000	-1.155766
1569.000000	10.000000
1568.000000	10.000000
1567.000000	10.000000
1566.000000	10.000000
1565.000000	0.464021
1564.000000	0.108808
1563.000000	10.000000
1562.000000	10.000000
1561.000000	10.000000
1560.000000	10.000000
1559.000000	-1.233774
1558.000000	-0.895896
1557.000000	10.000000
1556.000000	10.000000
1555.000000	0.543968
1554.000000	10.000000
1553.000000	10.000000
1552.000000	0.540496
1551.000000	10.000000
1550.000000	10.000000
1549.000000	-0.377502
1548.000000	-0.026178
1547.000000	10.000000
1546.000000	10.000000
1545.000000	0.579500
1544.000000	1.800053
1543.000000	1.418722
1542.000000	0.088966
1541.000000	10.000000
1540.000000	10.000000
1539.000000	10.000000
1538.000000	-0.024851
1537.000000	-0.184760
1536.000000	0.015783
1535.000000	10.000000
1534.000000	10.000000
1533.000000	-0.376697
1532.000000	-0.821456
1531.000000	10.000000
1530.000000	10.000000
1529.000000	0.679594
1528.000000	-0.138426
1527.000000	10.000000
1526.000000	10.000000
1525.000000	-0.944222
1524.000000	-0.385406
1523.000000	-0.144465
1522.000000	0.625906
1521.000000	-0.184425
1520.000000	-0.184425
1519.000000	-0.258523
1518.000000	-0.254721
1517.000000	-0.029273
1516.000000	-0.387642
1515.000000	-0.392003
1514.000000	-0.415488
1513.000000	-0.674426
1512.000000	-0.207492
1511.000000	-0.489000
1510.000000	10.000000
1509.000000	10.000000
1508.000000	10.000000
1507.000000	10.000000
1506.000000	-1.465359
1505.000000	10.000000
1504.000000	-0.054975
1503.000000	0.036865
1502.000000	-0.188066
1501.000000	10.000000
1500.000000	10.000000
1499.000000	-0.817780
1498.000000	-0.155839
1497.000000	-0.119248
1496.000000	10.000000
1495.000000	-0.283385
1494.000000	-0.244897
1493.000000	-0.351319
1492.000000	-0.264138
1491.000000	0.169475
1490.000000	10.000000
1489.000000	0.131315
1488.000000	10.000000
1487.000000	0.314798
1486.000000	10.000000
1485.000000	-0.357375
1484.000000	-0.057123
1483.000000	-0.524217
1482.000000	-0.819307
1481.000000	-0.285428
1480.000000	-0.023609
1479.000000	-0.180548
1478.000000	-0.319813
1477.000000	-0.295763
1476.000000	-0.022300
1475.000000	-0.271519
1474.000000	2.363813
1473.000000	10.000000
1472.000000	0.045704
1471.000000	-0.338604
1470.000000	-0.495782
1469.000000	-0.830875
1468.000000	-1.447311
1467.000000	-0.136651
1466.000000	-0.092221
1465.000000	-0.296512
1464.000000	-0.303043
1463.000000	-0.298109
1462.000000	10.000000
1461.000000	-0.087825
1460.000000	0.011232
1459.000000	-0.077193
1458.000000	-0.356464
1457.000000	-0.309301
1456.000000	-0.078896
1455.000000	0.123853
1454.000000	-0.241573
1453.000000	-0.503488
1452.000000	-0.093633
1451.000000	-0.081388
1450.000000	-0.185590
1449.000000	10.000000
1448.000000	10.000000
1447.000000	-0.343462
1446.000000	-1.640097
1445.000000	-1.800331
1444.000000	-0.287504
1443.000000	-0.183873
1442.000000	-0.056313
1441.000000	-0.071282
1440.000000	-0.335822
1439.000000	-0.465194
1438.000000	-0.109261
1437.000000	-0.122140
1436.000000	-0.284391
1435.000000	-0.466750
1434.000000	-0.076789
1433.000000	-0.109386
1432.000000	0.059686
1431.000000	10.000000
1430.000000	10.000000
1429.000000	-0.107425
1428.000000	-0.183941
1427.000000	-0.237784
1426.000000	-0.374787
1425.000000	-0.301318
1424.000000	-0.368164
1423.000000	-0.219730
1422.000000	-0.089806
1421.000000	-0.017220
1420.000000	-0.154622
1419.000000	-0.221034
1418.000000	-0.241157
1417.000000	-0.054490
1416.000000	-0.073651
1415.000000	-0.058499
1414.000000	-0.184320
1413.000000	-0.240828
1412.000000	-0.058707
1411.000000	-0.051812
1410.000000	-0.168110
1409.000000	-0.177743
1408.000000	-0.258075
1407.000000	-0.247434
1406.000000	0.030735
1405.000000	-0.075465
1404.000000	-0.220364
1403.000000	-0.245264
1402.000000	-0.610236
1401.000000	-0.589216
1400.000000	-0.138599
1399.000000	-0.047645
1398.000000	-0.100544
1397.000000	-0.130911
1396.000000	-0.016172
1395.000000	-0.096315
1394.000000	-0.084398
1393.000000	-0.075414
1392.000000	-0.119699
1391.000000	-0.038068
1390.000000	-0.020404
1389.000000	0.012044
1388.000000	-0.097159
1387.000000	-0.376198
1386.000000	-0.323146
1385.000000	-0.072690
1384.000000	-0.025330
1383.000000	-0.516232
1382.000000	-0.392863
1381.000000	-0.063007
1380.000000	-0.044210
1379.000000	10.000000
1378.000000	0.520688
1377.000000	-0.242457
1376.000000	0.058902
1375.000000	-0.251494
1374.000000	-0.165801
1373.000000	-0.047773
1372.000000	-0.112822
1371.000000	-0.137552
1370.000000	-0.036312
1369.000000	-0.154367
1368.000000	-0.074259
1367.000000	-0.093698
1366.000000	-0.017131
1365.000000	-0.147461
1364.000000	-0.013392
1363.000000	-0.096527
1362.000000	-0.229509
1361.000000	-0.207644
1360.000000	-0.087327
1359.000000	0.008665
1358.000000	-0.247292
1357.000000	-0.120081
1356.000000	-0.256964
1355.000000	-0.153670
1354.000000	-0.147502
1353.000000	-0.063857
1352.000000	-0.334810
1351.000000	-0.141023
1350.000000	-0.158037
1349.000000	-0.009954
1348.000000	-0.092085
1347.000000	-0.141710
1346.000000	-0.226530
1345.000000	-0.094884
1344.000000	-0.075895
1343.000000	-0.069445
1342.000000	-0.155804
1341.000000	-0.300659
1340.000000	-0.187551
1339.000000	-0.068203
1338.000000	-0.032938
1337.000000	-0.239543
1336.000000	-0.015658
1335.000000	-0.101261
1334.000000	-0.128552
1333.000000	-0.037721
1332.000000	-0.196852
1331.000000	-0.381243
1330.000000	-0.044110
1329.000000	-0.206409
1328.000000	-0.024514
1327.000000	-0.178144
1326.000000	-0.049106
1325.000000	-0.250694
1324.000000	-0.182803
1323.000000	-0.156346
1322.000000	-0.060656
1321.000000	0.107346
1320.000000	-0.029306
1319.000000	-0.022137
1318.000000	-0.238030
1317.000000	-0.118326
1316.000000	-0.099491
1315.000000	0.038014
1314.000000	-0.295987
1313.000000	-0.114143
1312.000000	-0.082869
1311.000000	-0.186841
1310.000000	-0.133707
1309.000000	0.086914
1308.000000	-0.499715
1307.000000	-0.103661
1306.000000	-0.079600
1305.000000	-0.074646
1304.000000	-0.194318
1303.000000	-0.259420
1302.000000	-0.973391
1301.000000	-0.276747
1300.000000	-0.088264
1299.000000	-0.202867
1298.000000	-0.210893
1297.000000	-0.183547
1296.000000	-0.221567
1295.000000	-0.507921
1294.000000	-0.196045
1293.000000	-0.151031
1292.000000	-0.032319
1291.000000	-0.027342
1290.000000	-0.237872
1289.000000	-0.038975
1288.000000	-0.140572
1287.000000	-0.052530
1286.000000	-0.120855
1285.000000	0.009252
1284.000000	-0.338091
1283.000000	-0.057164
1282.000000	-0.174711
1281.000000	0.032875
1280.000000	-0.140173
1279.000000	-0.052949
1278.000000	-0.251498
1277.000000	-0.248175
1276.000000	-0.144548
1275.000000	-0.035807
1274.000000	-0.271219
1273.000000	-0.717598
1272.000000	-0.747902
1271.000000	0.062595
1270.000000	0.337104
1269.000000	0.045317
1268.000000	-0.041125
1267.000000	0.037304
1266.000000	0.857323
1265.000000	-0.191926
1264.000000	-0.073777
1263.000000	0.337366
1262.000000	-0.253183
1261.000000	-0.073853
1260.000000	-0.154109
1259.000000	-0.039897
1258.000000	-0.040552
1257.000000	-0.000551
1256.000000	-0.099794
1255.000000	-0.041341
1254.000000	0.030546
1253.000000	-0.039967
1252.000000	-0.077074
1251.000000	-0.213524
1250.000000	-0.245835
1249.000000	-0.320776
1248.000000	-0.503972
1247.000000	-0.425224
1246.000000	-0.169055
1245.000000	0.012279
1244.000000	-0.084746
1243.000000	-0.263695
1242.000000	-0.189048
1241.000000	-0.026639
1240.000000	0.045432
1239.000000	0.020136
1238.000000	-0.132524
1237.000000	-0.233277
1236.000000	-0.011194
1235.000000	-0.030153
1234.000000	-0.000797
1233.000000	-0.012207
1232.000000	-0.017781
1231.000000	-0.167710
1230.000000	-0.139015
1229.000000	-0.177081
1228.000000	-0.203678
1227.000000	-0.201394
1226.000000	-0.644723
1225.000000	-0.764302
1224.000000	-0.084401
1223.000000	-0.023883
1222.000000	-0.077791
1221.000000	-0.073678
1220.000000	0.095813
1219.000000	0.049083
1218.000000	0.017826
1217.000000	-0.082288
1216.000000	-0.180342
1215.000000	-0.160504
1214.000000	-0.063592
1213.000000	-0.096242
1212.000000	-0.139512
1211.000000	-0.317828
1210.000000	-0.504495
1209.000000	-0.366531
1208.000000	-0.087782
1207.000000	-0.011201
1206.000000	-0.123056
1205.000000	-0.140948
1204.000000	-0.054381
1203.000000	-0.002003
1202.000000	0.018795
1201.000000	-0.044141
1200.000000	-0.193194
1199.000000	-0.227843
1198.000000	-0.158808
1197.000000	-0.039820
1196.000000	-0.099188
1195.000000	-0.159302
1194.000000	-0.204700
1193.000000	-0.280800
1192.000000	-0.163101
1191.000000	-0.026616
1190.000000	-0.010695
1189.000000	-0.040963
1188.000000	-0.125561
1187.000000	-0.085579
1186.000000	-0.023932
1185.000000	-0.011986
1184.000000	0.021823
1183.000000	-0.031186
1182.000000	-0.071781
1181.000000	-0.049098
1180.000000	-0.027750
1179.000000	-0.250498
1178.000000	-0.150021
1177.000000	-0.079619
1176.000000	-0.122242
1175.000000	-0.131674
1174.000000	-0.099491
1173.000000	-0.215661
1172.000000	-0.267275
1171.000000	-0.140887
1170.000000	-0.017260
1169.000000	0.009472
1168.000000	-0.147263
1167.000000	-0.035362
1166.000000	-0.149915
1165.000000	-0.117847
1164.000000	-0.014129
1163.000000	-0.220779
1162.000000	-0.162142
1161.000000	-0.056606
1160.000000	-0.118046
1159.000000	-0.151354
1158.000000	-0.068063
1157.000000	0.078395
1156.000000	-0.192320
1155.000000	-0.172296
1154.000000	-0.154581
1153.000000	-0.043763
1152.000000	-0.031017
1151.000000	-0.100201
1150.000000	-0.134878
1149.000000	-0.042923
1148.000000	-0.162627
1147.000000	0.008493
1146.000000	-0.171825
1145.000000	-0.036417
1144.000000	-0.021482
1143.000000	-0.031873
1142.000000	0.002650
1141.000000	-0.147047
1140.000000	-0.034393
1139.000000	-0.056153
1138.000000	-0.062564
1137.000000	-0.219911
1136.000000	-0.151615
1135.000000	-0.415496
1134.000000	-0.197176
1133.000000	0.000914
1132.000000	0.019760
1131.000000	-0.203979
1130.000000	0.000293
1129.000000	-0.051065
1128.000000	-0.173291
1127.000000	-0.100953
1126.000000	-0.010076
1125.000000	-0.214005
1124.000000	-0.051810
1123.000000	-0.050718
1122.000000	0.059910
1121.000000	-0.110073
1120.000000	0.020738
1119.000000	-0.112612
1118.000000	-0.092282
1117.000000	-0.160436
1116.000000	-0.131850
1115.000000	-0.053037
1114.000000	-0.193134
1113.000000	-0.080076
1112.000000	-0.101495
1111.000000	0.027613
1110.000000	-0.143201
1109.000000	-0.054481
1108.000000	0.058398
1107.000000	-0.267242
1106.000000	-0.010739
1105.000000	-0.188951
1104.000000	-0.035943
1103.000000	-0.000679
1102.000000	0.087280
1101.000000	-0.109962
1100.000000	-0.102588
1099.000000	-0.139496
1098.000000	-0.133973
1097.000000	-0.196265
1096.000000	-0.080710
1095.000000	-0.006033
1094.000000	-0.062054
1093.000000	-0.095529
1092.000000	-0.007205
1091.000000	-0.064466
1090.000000	-0.101368
1089.000000	-0.053008
1088.000000	0.015990
1087.000000	-0.092891
1086.000000	-0.016179
1085.000000	-0.083509
1084.000000	0.001527
1083.000000	-0.173313
1082.000000	-0.052018
1081.000000	-0.100163
1080.000000	-0.156101
1079.000000	-0.124057
1078.000000	-0.020203
1077.000000	-0.015167
1076.000000	-0.252712
1075.000000	-0.167637
1074.000000	-0.116859
1073.000000	-0.012554
1072.000000	-0.042727
1071.000000	-0.011335
1070.000000	-0.139551
1069.000000	-0.065758
1068.000000	-0.022144
1067.000000	-0.012767
1066.000000	-0.023607
1065.000000	-0.005758
1064.000000	-0.273906
1063.000000	-0.048530
1062.000000	-0.091460
1061.000000	-0.039336
1060.000000	-0.187143
1059.000000	-0.265069
1058.000000	-0.127452
1057.000000	-0.022618
1056.000000	-0.064744
1055.000000	-0.220688
1054.000000	-0.029459
1053.000000	-0.055895
1052.000000	0.025349
1051.000000	-0.016375
1050.000000	-0.094803
1049.000000	-0.247278
1048.000000	-0.100184
1047.000000	-0.082515
1046.000000	0.005980
1045.000000	-0.100184
1044.000000	-0.028428
1043.000000	-0.124118
1042.000000	-0.232887
1041.000000	-0.250774
1040.000000	-0.085969
1039.000000	-0.003592
1038.000000	-0.062826
1037.000000	-0.104440
1036.000000	-0.119321
1035.000000	-0.130109
1034.000000	-0.028919
1033.000000	-0.032474
1032.000000	-0.017984
1031.000000	-0.065875
1030.000000	-0.102442
1029.000000	-0.205656
1028.000000	-0.038113
1027.000000	-0.032384
1026.000000	-0.100737
1025.000000	-0.062233
1024.000000	-0.056163
1023.000000	-0.077989
1022.000000	-0.189449
1021.000000	-0.189964
1020.000000	-0.070754
1019.000000	-0.006321
1018.000000	-0.099458
1017.000000	-0.167720
1016.000000	-0.049389
1015.000000	-0.211367
1014.000000	-0.244917
1013.000000	0.003695
1012.000000	-0.069458
1011.000000	-0.092227
1010.000000	-0.046154
1009.000000	-0.135965
1008.000000	-0.130041
1007.000000	-0.179294
1006.000000	-0.235736
1005.000000	-0.150676
1004.000000	-0.065066
1003.000000	0.022444
1002.000000	-0.109250
1001.000000	-0.136165
1000.000000	-0.167522
999.000000	-0.138858
998.000000	0.050249
997.000000	-0.158892
996.000000	-0.191770
995.000000	-0.065003
994.000000	-0.004192
993.000000	-0.089539
992.000000	-0.153135
991.000000	-0.087278
990.000000	-0.087495
989.000000	-0.096576
988.000000	-0.013023
987.000000	-0.044689
986.000000	-0.137407
985.000000	-0.084400
984.000000	-0.270194
983.000000	-0.210915
982.000000	-0.025383
981.000000	-0.027646
980.000000	-0.114832
979.000000	-0.035047
978.000000	-0.030925
977.000000	-0.058248
976.000000	-0.040075
975.000000	0.044574
974.000000	-0.230945
973.000000	-0.167261
972.000000	-0.056412
971.000000	0.035586
970.000000	-0.078521
969.000000	-0.023300
968.000000	0.086236
967.000000	-0.055410
966.000000	-0.129538
965.000000	-0.110164
964.000000	-0.046851
963.000000	-0.060340
962.000000	-0.049605
961.000000	-0.009431
960.000000	-0.140980
959.000000	-0.042003
958.000000	-0.009529
957.000000	0.066843
956.000000	-0.182806
955.000000	-0.027655
954.000000	-0.124920
953.000000	-0.108432
952.000000	-0.071234
951.000000	-0.206010
950.000000	-0.046652
949.000000	-0.128527
948.000000	-0.113799
947.000000	-0.113604
946.000000	-0.345345
945.000000	-0.171029
944.000000	-0.007024
943.000000	0.147241
942.000000	-0.058218
941.000000	-0.049116
940.000000	-0.100045
939.000000	-0.088671
938.000000	-0.027664
937.000000	-0.223444
936.000000	0.013869
935.000000	-0.062211
934.000000	0.046820
933.000000	-0.149347
932.000000	-0.049418
931.000000	-0.328265
930.000000	-0.232232
929.000000	-0.129204
928.000000	0.001259
927.000000	0.056293
926.000000	-0.271320
925.000000	-0.012604
924.000000	-0.212588
923.000000	-0.099344
922.000000	0.026380
921.000000	-0.218627
920.000000	-0.008985
919.000000	-0.063131
918.000000	0.027320
917.000000	-0.280342
916.000000	0.063111
915.000000	-0.167757
914.000000	-0.338039
913.000000	-0.078006
912.000000	0.004757
911.000000	0.009488
910.000000	-0.209410
909.000000	-0.111799
908.000000	-0.198162
907.000000	-0.059252
906.000000	-0.017833
905.000000	0.024082
904.000000	10.000000
903.000000	-0.129101
902.000000	-0.195466
901.000000	-0.614858
900.000000	-0.031905
899.000000	-0.035166
898.000000	0.032776
897.000000	-0.195383
896.000000	0.001821
895.000000	-0.054572
894.000000	-0.163220
893.000000	-0.094569
892.000000	-0.171882
891.000000	-0.015101
890.000000	0.037961
889.000000	-0.114246
888.000000	0.045277
887.000000	-0.047008
886.000000	0.050232
885.000000	-0.053947
884.000000	-0.298438
883.000000	-0.005012
882.000000	-0.043160
881.000000	-0.069268
880.000000	-0.108398
879.000000	-0.162374
878.000000	-0.373278
877.000000	-0.086647
876.000000	-0.081634
875.000000	-0.057125
874.000000	0.033670
873.000000	-0.217177
872.000000	-0.047487
871.000000	-0.151248
870.000000	-0.047989
869.000000	0.024890
868.000000	-0.140297
867.000000	0.042891
866.000000	-0.039569
865.000000	-0.008576
864.000000	-0.142749
863.000000	-0.037008
862.000000	-0.110237
861.000000	-0.111216
860.000000	-0.127467
859.000000	-0.666160
858.000000	-1.040573
857.000000	-0.029422
856.000000	-0.365815
855.000000	-0.449531
854.000000	0.074208
853.000000	-0.448547
852.000000	-0.818168
851.000000	-0.048647
850.000000	0.050030
849.000000	-0.071359
848.000000	0.123786
847.000000	-0.235520
846.000000	-0.516998
845.000000	-0.428780
844.000000	-0.082218
843.000000	-0.477289
842.000000	-0.574466
841.000000	0.218670
840.000000	-0.077253
839.000000	-0.003797
838.000000	0.095297
837.000000	-0.075793
836.000000	-0.290166
835.000000	-0.149047
834.000000	0.038551
833.000000	-0.044380
832.000000	-0.689806
831.000000	-0.855114
830.000000	-0.101248
829.000000	-0.160371
828.000000	-0.276788
827.000000	-0.465878
826.000000	-0.062725
825.000000	-0.197835
824.000000	-0.344782
823.000000	-0.234876
822.000000	-0.012975
821.000000	-0.197275
820.000000	-0.389561
819.000000	0.204694
818.000000	0.194125
817.000000	-0.127133
816.000000	-0.208927
815.000000	-0.080858
814.000000	-0.101025
813.000000	-0.047193
812.000000	-0.044487
811.000000	-0.073739
810.000000	-0.451125
809.000000	-0.977431
808.000000	-0.898277
807.000000	-0.105020
806.000000	-0.462653
805.000000	-0.471234
804.000000	-0.025284
803.000000	-0.057195
802.000000	-0.153227
801.000000	-0.063080
800.000000	-0.251681
