PE UV       SUBTECH     SPECTRUM    ASCII       PEDS        4.00        
   -1
Sample1519.Sample.Cycle1.Raw.asc
26/04/19
00:01:16.00
26/04/19
00:01:16.00
Analyst

800.000000
1
Lambda 750
750N9121602
PerkinElmer UV WinLab 6.0.3.0730 / 1.61.00 Lambda 900

0
0
3350/servo 860.8/2
0
0
UV/VIS
1
1
1
uv/vis/nir detector
0
0
0
0
Program
Program
3350/servo 860.8/2
3350/0.2 860.8/0.2
3350/0.2 860.8/0.2
0
1
 
 
 
0
 
860.8
319.2
860.8
Front
100
 
 
 
0
0
0
 
0
 
 
 
0
 
 
0
0
0
0
0
 
 
 
 
0
0


#HDR
-1
-1
#GR
nm
A
1.0
0.0
2500.000000
-1.000000
1701
8
10.000000
-3.042787
#DATA
2500.000000	10.000000
2499.000000	0.929309
2498.000000	10.000000
2497.000000	10.000000
2496.000000	10.000000
2495.000000	10.000000
2494.000000	10.000000
2493.000000	10.000000
2492.000000	10.000000
2491.000000	10.000000
2490.000000	10.000000
2489.000000	10.000000
2488.000000	10.000000
2487.000000	10.000000
2486.000000	10.000000
2485.000000	10.000000
2484.000000	10.000000
2483.000000	10.000000
2482.000000	10.000000
2481.000000	10.000000
2480.000000	10.000000
2479.000000	10.000000
2478.000000	10.000000
2477.000000	10.000000
2476.000000	10.000000
2475.000000	10.000000
2474.000000	10.000000
2473.000000	10.000000
2472.000000	10.000000
2471.000000	10.000000
2470.000000	10.000000
2469.000000	10.000000
2468.000000	10.000000
2467.000000	10.000000
2466.000000	10.000000
2465.000000	10.000000
2464.000000	10.000000
2463.000000	10.000000
2462.000000	10.000000
2461.000000	10.000000
2460.000000	10.000000
2459.000000	10.000000
2458.000000	10.000000
2457.000000	10.000000
2456.000000	10.000000
2455.000000	10.000000
2454.000000	10.000000
2453.000000	10.000000
2452.000000	10.000000
2451.000000	10.000000
2450.000000	10.000000
2449.000000	10.000000
2448.000000	10.000000
2447.000000	10.000000
2446.000000	10.000000
2445.000000	10.000000
2444.000000	10.000000
2443.000000	10.000000
2442.000000	10.000000
2441.000000	10.000000
2440.000000	10.000000
2439.000000	10.000000
2438.000000	10.000000
2437.000000	10.000000
2436.000000	10.000000
2435.000000	10.000000
2434.000000	10.000000
2433.000000	10.000000
2432.000000	10.000000
2431.000000	10.000000
2430.000000	10.000000
2429.000000	10.000000
2428.000000	10.000000
2427.000000	10.000000
2426.000000	10.000000
2425.000000	10.000000
2424.000000	10.000000
2423.000000	10.000000
2422.000000	10.000000
2421.000000	10.000000
2420.000000	10.000000
2419.000000	10.000000
2418.000000	10.000000
2417.000000	10.000000
2416.000000	10.000000
2415.000000	10.000000
2414.000000	10.000000
2413.000000	10.000000
2412.000000	10.000000
2411.000000	10.000000
2410.000000	10.000000
2409.000000	10.000000
2408.000000	10.000000
2407.000000	10.000000
2406.000000	10.000000
2405.000000	10.000000
2404.000000	10.000000
2403.000000	10.000000
2402.000000	10.000000
2401.000000	10.000000
2400.000000	10.000000
2399.000000	10.000000
2398.000000	10.000000
2397.000000	10.000000
2396.000000	10.000000
2395.000000	10.000000
2394.000000	10.000000
2393.000000	10.000000
2392.000000	10.000000
2391.000000	10.000000
2390.000000	10.000000
2389.000000	10.000000
2388.000000	10.000000
2387.000000	10.000000
2386.000000	10.000000
2385.000000	10.000000
2384.000000	10.000000
2383.000000	10.000000
2382.000000	10.000000
2381.000000	10.000000
2380.000000	10.000000
2379.000000	10.000000
2378.000000	10.000000
2377.000000	10.000000
2376.000000	10.000000
2375.000000	10.000000
2374.000000	10.000000
2373.000000	10.000000
2372.000000	10.000000
2371.000000	10.000000
2370.000000	10.000000
2369.000000	10.000000
2368.000000	10.000000
2367.000000	10.000000
2366.000000	10.000000
2365.000000	10.000000
2364.000000	10.000000
2363.000000	10.000000
2362.000000	10.000000
2361.000000	10.000000
2360.000000	10.000000
2359.000000	10.000000
2358.000000	10.000000
2357.000000	10.000000
2356.000000	10.000000
2355.000000	10.000000
2354.000000	10.000000
2353.000000	10.000000
2352.000000	10.000000
2351.000000	10.000000
2350.000000	10.000000
2349.000000	10.000000
2348.000000	10.000000
2347.000000	10.000000
2346.000000	10.000000
2345.000000	10.000000
2344.000000	10.000000
2343.000000	10.000000
2342.000000	10.000000
2341.000000	10.000000
2340.000000	10.000000
2339.000000	10.000000
2338.000000	10.000000
2337.000000	10.000000
2336.000000	10.000000
2335.000000	10.000000
2334.000000	10.000000
2333.000000	10.000000
2332.000000	10.000000
2331.000000	10.000000
2330.000000	10.000000
2329.000000	10.000000
2328.000000	10.000000
2327.000000	10.000000
2326.000000	10.000000
2325.000000	10.000000
2324.000000	10.000000
2323.000000	10.000000
2322.000000	10.000000
2321.000000	10.000000
2320.000000	10.000000
2319.000000	10.000000
2318.000000	10.000000
2317.000000	10.000000
2316.000000	10.000000
2315.000000	10.000000
2314.000000	10.000000
2313.000000	10.000000
2312.000000	10.000000
2311.000000	10.000000
2310.000000	10.000000
2309.000000	10.000000
2308.000000	10.000000
2307.000000	10.000000
2306.000000	10.000000
2305.000000	10.000000
2304.000000	10.000000
2303.000000	10.000000
2302.000000	10.000000
2301.000000	10.000000
2300.000000	10.000000
2299.000000	10.000000
2298.000000	10.000000
2297.000000	10.000000
2296.000000	10.000000
2295.000000	10.000000
2294.000000	10.000000
2293.000000	10.000000
2292.000000	10.000000
2291.000000	10.000000
2290.000000	10.000000
2289.000000	10.000000
2288.000000	10.000000
2287.000000	10.000000
2286.000000	10.000000
2285.000000	10.000000
2284.000000	10.000000
2283.000000	10.000000
2282.000000	10.000000
2281.000000	10.000000
2280.000000	10.000000
2279.000000	10.000000
2278.000000	10.000000
2277.000000	10.000000
2276.000000	10.000000
2275.000000	10.000000
2274.000000	10.000000
2273.000000	10.000000
2272.000000	10.000000
2271.000000	10.000000
2270.000000	10.000000
2269.000000	10.000000
2268.000000	10.000000
2267.000000	10.000000
2266.000000	10.000000
2265.000000	10.000000
2264.000000	10.000000
2263.000000	10.000000
2262.000000	10.000000
2261.000000	10.000000
2260.000000	10.000000
2259.000000	10.000000
2258.000000	10.000000
2257.000000	10.000000
2256.000000	10.000000
2255.000000	10.000000
2254.000000	10.000000
2253.000000	10.000000
2252.000000	10.000000
2251.000000	10.000000
2250.000000	10.000000
2249.000000	10.000000
2248.000000	10.000000
2247.000000	10.000000
2246.000000	10.000000
2245.000000	10.000000
2244.000000	10.000000
2243.000000	10.000000
2242.000000	10.000000
2241.000000	10.000000
2240.000000	10.000000
2239.000000	10.000000
2238.000000	10.000000
2237.000000	10.000000
2236.000000	10.000000
2235.000000	10.000000
2234.000000	10.000000
2233.000000	10.000000
2232.000000	10.000000
2231.000000	10.000000
2230.000000	10.000000
2229.000000	10.000000
2228.000000	10.000000
2227.000000	10.000000
2226.000000	10.000000
2225.000000	10.000000
2224.000000	10.000000
2223.000000	10.000000
2222.000000	10.000000
2221.000000	10.000000
2220.000000	10.000000
2219.000000	10.000000
2218.000000	10.000000
2217.000000	10.000000
2216.000000	10.000000
2215.000000	10.000000
2214.000000	10.000000
2213.000000	10.000000
2212.000000	10.000000
2211.000000	10.000000
2210.000000	10.000000
2209.000000	10.000000
2208.000000	10.000000
2207.000000	10.000000
2206.000000	10.000000
2205.000000	10.000000
2204.000000	10.000000
2203.000000	10.000000
2202.000000	10.000000
2201.000000	10.000000
2200.000000	10.000000
2199.000000	10.000000
2198.000000	10.000000
2197.000000	10.000000
2196.000000	10.000000
2195.000000	10.000000
2194.000000	10.000000
2193.000000	10.000000
2192.000000	10.000000
2191.000000	10.000000
2190.000000	10.000000
2189.000000	10.000000
2188.000000	10.000000
2187.000000	10.000000
2186.000000	10.000000
2185.000000	10.000000
2184.000000	10.000000
2183.000000	10.000000
2182.000000	10.000000
2181.000000	10.000000
2180.000000	10.000000
2179.000000	10.000000
2178.000000	10.000000
2177.000000	10.000000
2176.000000	10.000000
2175.000000	10.000000
2174.000000	10.000000
2173.000000	10.000000
2172.000000	10.000000
2171.000000	10.000000
2170.000000	10.000000
2169.000000	10.000000
2168.000000	10.000000
2167.000000	10.000000
2166.000000	10.000000
2165.000000	10.000000
2164.000000	10.000000
2163.000000	10.000000
2162.000000	10.000000
2161.000000	10.000000
2160.000000	10.000000
2159.000000	10.000000
2158.000000	10.000000
2157.000000	10.000000
2156.000000	10.000000
2155.000000	10.000000
2154.000000	10.000000
2153.000000	10.000000
2152.000000	10.000000
2151.000000	10.000000
2150.000000	10.000000
2149.000000	10.000000
2148.000000	10.000000
2147.000000	10.000000
2146.000000	10.000000
2145.000000	10.000000
2144.000000	10.000000
2143.000000	10.000000
2142.000000	10.000000
2141.000000	10.000000
2140.000000	10.000000
2139.000000	10.000000
2138.000000	10.000000
2137.000000	10.000000
2136.000000	10.000000
2135.000000	10.000000
2134.000000	10.000000
2133.000000	10.000000
2132.000000	10.000000
2131.000000	10.000000
2130.000000	10.000000
2129.000000	10.000000
2128.000000	10.000000
2127.000000	10.000000
2126.000000	10.000000
2125.000000	10.000000
2124.000000	10.000000
2123.000000	10.000000
2122.000000	10.000000
2121.000000	10.000000
2120.000000	10.000000
2119.000000	10.000000
2118.000000	10.000000
2117.000000	10.000000
2116.000000	10.000000
2115.000000	10.000000
2114.000000	10.000000
2113.000000	10.000000
2112.000000	10.000000
2111.000000	10.000000
2110.000000	10.000000
2109.000000	10.000000
2108.000000	10.000000
2107.000000	10.000000
2106.000000	10.000000
2105.000000	10.000000
2104.000000	10.000000
2103.000000	10.000000
2102.000000	10.000000
2101.000000	10.000000
2100.000000	10.000000
2099.000000	10.000000
2098.000000	10.000000
2097.000000	10.000000
2096.000000	10.000000
2095.000000	10.000000
2094.000000	10.000000
2093.000000	10.000000
2092.000000	10.000000
2091.000000	10.000000
2090.000000	10.000000
2089.000000	10.000000
2088.000000	10.000000
2087.000000	10.000000
2086.000000	10.000000
2085.000000	10.000000
2084.000000	10.000000
2083.000000	10.000000
2082.000000	10.000000
2081.000000	10.000000
2080.000000	10.000000
2079.000000	10.000000
2078.000000	10.000000
2077.000000	10.000000
2076.000000	10.000000
2075.000000	10.000000
2074.000000	10.000000
2073.000000	10.000000
2072.000000	10.000000
2071.000000	10.000000
2070.000000	10.000000
2069.000000	10.000000
2068.000000	10.000000
2067.000000	10.000000
2066.000000	10.000000
2065.000000	10.000000
2064.000000	10.000000
2063.000000	10.000000
2062.000000	10.000000
2061.000000	10.000000
2060.000000	10.000000
2059.000000	10.000000
2058.000000	10.000000
2057.000000	10.000000
2056.000000	10.000000
2055.000000	10.000000
2054.000000	10.000000
2053.000000	10.000000
2052.000000	10.000000
2051.000000	10.000000
2050.000000	10.000000
2049.000000	10.000000
2048.000000	10.000000
2047.000000	10.000000
2046.000000	10.000000
2045.000000	10.000000
2044.000000	10.000000
2043.000000	10.000000
2042.000000	10.000000
2041.000000	10.000000
2040.000000	10.000000
2039.000000	10.000000
2038.000000	10.000000
2037.000000	10.000000
2036.000000	10.000000
2035.000000	10.000000
2034.000000	10.000000
2033.000000	10.000000
2032.000000	10.000000
2031.000000	10.000000
2030.000000	10.000000
2029.000000	10.000000
2028.000000	10.000000
2027.000000	10.000000
2026.000000	10.000000
2025.000000	10.000000
2024.000000	10.000000
2023.000000	10.000000
2022.000000	10.000000
2021.000000	10.000000
2020.000000	10.000000
2019.000000	10.000000
2018.000000	10.000000
2017.000000	10.000000
2016.000000	10.000000
2015.000000	10.000000
2014.000000	10.000000
2013.000000	10.000000
2012.000000	10.000000
2011.000000	10.000000
2010.000000	10.000000
2009.000000	10.000000
2008.000000	10.000000
2007.000000	10.000000
2006.000000	10.000000
2005.000000	10.000000
2004.000000	10.000000
2003.000000	10.000000
2002.000000	10.000000
2001.000000	10.000000
2000.000000	10.000000
1999.000000	10.000000
1998.000000	10.000000
1997.000000	10.000000
1996.000000	10.000000
1995.000000	10.000000
1994.000000	10.000000
1993.000000	10.000000
1992.000000	10.000000
1991.000000	10.000000
1990.000000	10.000000
1989.000000	10.000000
1988.000000	10.000000
1987.000000	10.000000
1986.000000	10.000000
1985.000000	10.000000
1984.000000	10.000000
1983.000000	10.000000
1982.000000	10.000000
1981.000000	10.000000
1980.000000	10.000000
1979.000000	10.000000
1978.000000	10.000000
1977.000000	10.000000
1976.000000	10.000000
1975.000000	10.000000
1974.000000	10.000000
1973.000000	10.000000
1972.000000	10.000000
1971.000000	10.000000
1970.000000	10.000000
1969.000000	10.000000
1968.000000	10.000000
1967.000000	10.000000
1966.000000	10.000000
1965.000000	10.000000
1964.000000	10.000000
1963.000000	10.000000
1962.000000	10.000000
1961.000000	10.000000
1960.000000	10.000000
1959.000000	10.000000
1958.000000	10.000000
1957.000000	10.000000
1956.000000	10.000000
1955.000000	10.000000
1954.000000	10.000000
1953.000000	10.000000
1952.000000	10.000000
1951.000000	10.000000
1950.000000	10.000000
1949.000000	10.000000
1948.000000	10.000000
1947.000000	10.000000
1946.000000	10.000000
1945.000000	10.000000
1944.000000	10.000000
1943.000000	10.000000
1942.000000	10.000000
1941.000000	10.000000
1940.000000	10.000000
1939.000000	10.000000
1938.000000	10.000000
1937.000000	10.000000
1936.000000	10.000000
1935.000000	10.000000
1934.000000	10.000000
1933.000000	10.000000
1932.000000	10.000000
1931.000000	10.000000
1930.000000	10.000000
1929.000000	10.000000
1928.000000	10.000000
1927.000000	10.000000
1926.000000	10.000000
1925.000000	10.000000
1924.000000	10.000000
1923.000000	10.000000
1922.000000	10.000000
1921.000000	10.000000
1920.000000	10.000000
1919.000000	10.000000
1918.000000	10.000000
1917.000000	10.000000
1916.000000	10.000000
1915.000000	10.000000
1914.000000	10.000000
1913.000000	10.000000
1912.000000	10.000000
1911.000000	10.000000
1910.000000	10.000000
1909.000000	10.000000
1908.000000	10.000000
1907.000000	10.000000
1906.000000	10.000000
1905.000000	10.000000
1904.000000	10.000000
1903.000000	10.000000
1902.000000	10.000000
1901.000000	10.000000
1900.000000	10.000000
1899.000000	0.991607
1898.000000	10.000000
1897.000000	10.000000
1896.000000	10.000000
1895.000000	10.000000
1894.000000	10.000000
1893.000000	10.000000
1892.000000	10.000000
1891.000000	10.000000
1890.000000	10.000000
1889.000000	10.000000
1888.000000	10.000000
1887.000000	10.000000
1886.000000	10.000000
1885.000000	10.000000
1884.000000	10.000000
1883.000000	10.000000
1882.000000	10.000000
1881.000000	10.000000
1880.000000	10.000000
1879.000000	10.000000
1878.000000	10.000000
1877.000000	10.000000
1876.000000	10.000000
1875.000000	10.000000
1874.000000	10.000000
1873.000000	10.000000
1872.000000	10.000000
1871.000000	10.000000
1870.000000	10.000000
1869.000000	10.000000
1868.000000	10.000000
1867.000000	10.000000
1866.000000	10.000000
1865.000000	10.000000
1864.000000	10.000000
1863.000000	10.000000
1862.000000	10.000000
1861.000000	10.000000
1860.000000	10.000000
1859.000000	10.000000
1858.000000	10.000000
1857.000000	10.000000
1856.000000	10.000000
1855.000000	10.000000
1854.000000	10.000000
1853.000000	10.000000
1852.000000	10.000000
1851.000000	10.000000
1850.000000	10.000000
1849.000000	10.000000
1848.000000	10.000000
1847.000000	10.000000
1846.000000	10.000000
1845.000000	10.000000
1844.000000	10.000000
1843.000000	10.000000
1842.000000	10.000000
1841.000000	10.000000
1840.000000	10.000000
1839.000000	10.000000
1838.000000	10.000000
1837.000000	10.000000
1836.000000	10.000000
1835.000000	10.000000
1834.000000	10.000000
1833.000000	10.000000
1832.000000	10.000000
1831.000000	10.000000
1830.000000	10.000000
1829.000000	10.000000
1828.000000	10.000000
1827.000000	10.000000
1826.000000	10.000000
1825.000000	10.000000
1824.000000	10.000000
1823.000000	10.000000
1822.000000	10.000000
1821.000000	10.000000
1820.000000	10.000000
1819.000000	10.000000
1818.000000	10.000000
1817.000000	10.000000
1816.000000	10.000000
1815.000000	10.000000
1814.000000	10.000000
1813.000000	10.000000
1812.000000	10.000000
1811.000000	10.000000
1810.000000	10.000000
1809.000000	10.000000
1808.000000	10.000000
1807.000000	10.000000
1806.000000	10.000000
1805.000000	10.000000
1804.000000	10.000000
1803.000000	10.000000
1802.000000	10.000000
1801.000000	10.000000
1800.000000	10.000000
1799.000000	10.000000
1798.000000	10.000000
1797.000000	10.000000
1796.000000	10.000000
1795.000000	10.000000
1794.000000	10.000000
1793.000000	10.000000
1792.000000	10.000000
1791.000000	10.000000
1790.000000	10.000000
1789.000000	10.000000
1788.000000	10.000000
1787.000000	10.000000
1786.000000	10.000000
1785.000000	10.000000
1784.000000	10.000000
1783.000000	10.000000
1782.000000	10.000000
1781.000000	10.000000
1780.000000	10.000000
1779.000000	10.000000
1778.000000	10.000000
1777.000000	10.000000
1776.000000	10.000000
1775.000000	10.000000
1774.000000	10.000000
1773.000000	10.000000
1772.000000	10.000000
1771.000000	10.000000
1770.000000	10.000000
1769.000000	10.000000
1768.000000	10.000000
1767.000000	10.000000
1766.000000	10.000000
1765.000000	10.000000
1764.000000	10.000000
1763.000000	10.000000
1762.000000	10.000000
1761.000000	10.000000
1760.000000	10.000000
1759.000000	10.000000
1758.000000	10.000000
1757.000000	10.000000
1756.000000	10.000000
1755.000000	10.000000
1754.000000	10.000000
1753.000000	10.000000
1752.000000	10.000000
1751.000000	10.000000
1750.000000	10.000000
1749.000000	10.000000
1748.000000	10.000000
1747.000000	10.000000
1746.000000	10.000000
1745.000000	10.000000
1744.000000	10.000000
1743.000000	10.000000
1742.000000	10.000000
1741.000000	10.000000
1740.000000	10.000000
1739.000000	10.000000
1738.000000	10.000000
1737.000000	10.000000
1736.000000	10.000000
1735.000000	10.000000
1734.000000	10.000000
1733.000000	10.000000
1732.000000	10.000000
1731.000000	10.000000
1730.000000	10.000000
1729.000000	10.000000
1728.000000	10.000000
1727.000000	10.000000
1726.000000	10.000000
1725.000000	10.000000
1724.000000	10.000000
1723.000000	10.000000
1722.000000	10.000000
1721.000000	10.000000
1720.000000	10.000000
1719.000000	10.000000
1718.000000	10.000000
1717.000000	10.000000
1716.000000	10.000000
1715.000000	10.000000
1714.000000	10.000000
1713.000000	10.000000
1712.000000	10.000000
1711.000000	10.000000
1710.000000	10.000000
1709.000000	10.000000
1708.000000	10.000000
1707.000000	10.000000
1706.000000	10.000000
1705.000000	10.000000
1704.000000	10.000000
1703.000000	10.000000
1702.000000	10.000000
1701.000000	10.000000
1700.000000	10.000000
1699.000000	10.000000
1698.000000	10.000000
1697.000000	10.000000
1696.000000	10.000000
1695.000000	10.000000
1694.000000	10.000000
1693.000000	10.000000
1692.000000	10.000000
1691.000000	10.000000
1690.000000	10.000000
1689.000000	10.000000
1688.000000	10.000000
1687.000000	10.000000
1686.000000	10.000000
1685.000000	10.000000
1684.000000	10.000000
1683.000000	10.000000
1682.000000	10.000000
1681.000000	10.000000
1680.000000	10.000000
1679.000000	10.000000
1678.000000	10.000000
1677.000000	10.000000
1676.000000	10.000000
1675.000000	10.000000
1674.000000	10.000000
1673.000000	10.000000
1672.000000	10.000000
1671.000000	10.000000
1670.000000	10.000000
1669.000000	10.000000
1668.000000	10.000000
1667.000000	10.000000
1666.000000	10.000000
1665.000000	10.000000
1664.000000	10.000000
1663.000000	10.000000
1662.000000	10.000000
1661.000000	10.000000
1660.000000	10.000000
1659.000000	10.000000
1658.000000	10.000000
1657.000000	10.000000
1656.000000	10.000000
1655.000000	10.000000
1654.000000	10.000000
1653.000000	10.000000
1652.000000	10.000000
1651.000000	10.000000
1650.000000	10.000000
1649.000000	10.000000
1648.000000	10.000000
1647.000000	10.000000
1646.000000	10.000000
1645.000000	10.000000
1644.000000	10.000000
1643.000000	10.000000
1642.000000	10.000000
1641.000000	10.000000
1640.000000	10.000000
1639.000000	10.000000
1638.000000	10.000000
1637.000000	10.000000
1636.000000	10.000000
1635.000000	10.000000
1634.000000	10.000000
1633.000000	10.000000
1632.000000	10.000000
1631.000000	10.000000
1630.000000	10.000000
1629.000000	10.000000
1628.000000	10.000000
1627.000000	10.000000
1626.000000	10.000000
1625.000000	10.000000
1624.000000	10.000000
1623.000000	10.000000
1622.000000	10.000000
1621.000000	10.000000
1620.000000	10.000000
1619.000000	10.000000
1618.000000	10.000000
1617.000000	10.000000
1616.000000	10.000000
1615.000000	10.000000
1614.000000	10.000000
1613.000000	10.000000
1612.000000	10.000000
1611.000000	10.000000
1610.000000	10.000000
1609.000000	10.000000
1608.000000	10.000000
1607.000000	10.000000
1606.000000	10.000000
1605.000000	10.000000
1604.000000	10.000000
1603.000000	10.000000
1602.000000	10.000000
1601.000000	10.000000
1600.000000	10.000000
1599.000000	10.000000
1598.000000	10.000000
1597.000000	10.000000
1596.000000	10.000000
1595.000000	10.000000
1594.000000	10.000000
1593.000000	10.000000
1592.000000	10.000000
1591.000000	10.000000
1590.000000	10.000000
1589.000000	10.000000
1588.000000	10.000000
1587.000000	10.000000
1586.000000	10.000000
1585.000000	10.000000
1584.000000	10.000000
1583.000000	10.000000
1582.000000	10.000000
1581.000000	10.000000
1580.000000	10.000000
1579.000000	10.000000
1578.000000	10.000000
1577.000000	10.000000
1576.000000	10.000000
1575.000000	10.000000
1574.000000	10.000000
1573.000000	10.000000
1572.000000	10.000000
1571.000000	10.000000
1570.000000	10.000000
1569.000000	10.000000
1568.000000	10.000000
1567.000000	10.000000
1566.000000	10.000000
1565.000000	10.000000
1564.000000	10.000000
1563.000000	10.000000
1562.000000	10.000000
1561.000000	10.000000
1560.000000	10.000000
1559.000000	10.000000
1558.000000	10.000000
1557.000000	10.000000
1556.000000	10.000000
1555.000000	10.000000
1554.000000	10.000000
1553.000000	-0.571878
1552.000000	-0.721415
1551.000000	10.000000
1550.000000	10.000000
1549.000000	10.000000
1548.000000	10.000000
1547.000000	10.000000
1546.000000	10.000000
1545.000000	10.000000
1544.000000	10.000000
1543.000000	10.000000
1542.000000	10.000000
1541.000000	10.000000
1540.000000	10.000000
1539.000000	10.000000
1538.000000	10.000000
1537.000000	10.000000
1536.000000	10.000000
1535.000000	-0.706496
1534.000000	10.000000
1533.000000	10.000000
1532.000000	10.000000
1531.000000	10.000000
1530.000000	10.000000
1529.000000	10.000000
1528.000000	10.000000
1527.000000	-2.056442
1526.000000	-1.045643
1525.000000	10.000000
1524.000000	10.000000
1523.000000	10.000000
1522.000000	-0.796439
1521.000000	10.000000
1520.000000	10.000000
1519.000000	10.000000
1518.000000	10.000000
1517.000000	10.000000
1516.000000	10.000000
1515.000000	-0.900421
1514.000000	10.000000
1513.000000	0.002769
1512.000000	10.000000
1511.000000	10.000000
1510.000000	10.000000
1509.000000	10.000000
1508.000000	10.000000
1507.000000	10.000000
1506.000000	10.000000
1505.000000	-1.141176
1504.000000	10.000000
1503.000000	10.000000
1502.000000	10.000000
1501.000000	10.000000
1500.000000	10.000000
1499.000000	0.411781
1498.000000	10.000000
1497.000000	10.000000
1496.000000	-0.525346
1495.000000	-0.507161
1494.000000	10.000000
1493.000000	10.000000
1492.000000	10.000000
1491.000000	10.000000
1490.000000	10.000000
1489.000000	10.000000
1488.000000	10.000000
1487.000000	-0.736201
1486.000000	10.000000
1485.000000	10.000000
1484.000000	10.000000
1483.000000	10.000000
1482.000000	10.000000
1481.000000	10.000000
1480.000000	10.000000
1479.000000	10.000000
1478.000000	10.000000
1477.000000	10.000000
1476.000000	10.000000
1475.000000	-0.412345
1474.000000	-2.850343
1473.000000	-0.862799
1472.000000	-1.813898
1471.000000	0.208748
1470.000000	10.000000
1469.000000	10.000000
1468.000000	10.000000
1467.000000	10.000000
1466.000000	-0.929126
1465.000000	-0.054625
1464.000000	10.000000
1463.000000	10.000000
1462.000000	10.000000
1461.000000	10.000000
1460.000000	10.000000
1459.000000	10.000000
1458.000000	10.000000
1457.000000	10.000000
1456.000000	-0.425312
1455.000000	10.000000
1454.000000	10.000000
1453.000000	10.000000
1452.000000	-0.902996
1451.000000	-1.452209
1450.000000	-0.472380
1449.000000	-0.519142
1448.000000	-0.674586
1447.000000	-0.488648
1446.000000	0.676872
1445.000000	1.952223
1444.000000	-0.313802
1443.000000	-0.311659
1442.000000	-0.213506
1441.000000	10.000000
1440.000000	10.000000
1439.000000	10.000000
1438.000000	10.000000
1437.000000	10.000000
1436.000000	10.000000
1435.000000	-0.042778
1434.000000	-0.380325
1433.000000	-0.246403
1432.000000	10.000000
1431.000000	10.000000
1430.000000	-0.051422
1429.000000	-0.315516
1428.000000	10.000000
1427.000000	0.083421
1426.000000	-0.243726
1425.000000	10.000000
1424.000000	10.000000
1423.000000	0.125106
1422.000000	10.000000
1421.000000	0.273949
1420.000000	-0.489911
1419.000000	-0.646189
1418.000000	-0.716882
1417.000000	-0.623482
1416.000000	-0.135634
1415.000000	-0.418208
1414.000000	-1.193263
1413.000000	-1.072852
1412.000000	-0.481335
1411.000000	-0.588944
1410.000000	-0.562231
1409.000000	-0.221700
1408.000000	0.996559
1407.000000	0.214544
1406.000000	-0.478717
1405.000000	0.466004
1404.000000	0.271723
1403.000000	-0.072867
1402.000000	0.338784
1401.000000	0.216245
1400.000000	0.465740
1399.000000	10.000000
1398.000000	10.000000
1397.000000	-0.352768
1396.000000	-0.599466
1395.000000	0.322971
1394.000000	10.000000
1393.000000	10.000000
1392.000000	0.465716
1391.000000	-0.348245
1390.000000	-0.535614
1389.000000	-0.410960
1388.000000	-0.142855
1387.000000	-0.096497
1386.000000	0.754910
1385.000000	-0.002029
1384.000000	-0.857300
1383.000000	-0.617955
1382.000000	-0.579853
1381.000000	-1.303845
1380.000000	-1.712703
1379.000000	-1.340867
1378.000000	0.893006
1377.000000	-0.899185
1376.000000	-0.853702
1375.000000	-0.819334
1374.000000	-0.724816
1373.000000	-0.481145
1372.000000	-0.487942
1371.000000	-0.272406
1370.000000	-0.296543
1369.000000	-0.412000
1368.000000	0.043771
1367.000000	-0.167515
1366.000000	-0.385849
1365.000000	-0.220209
1364.000000	-0.331136
1363.000000	-0.116212
1362.000000	0.019105
1361.000000	-0.198207
1360.000000	10.000000
1359.000000	-0.286664
1358.000000	-0.045284
1357.000000	-0.435351
1356.000000	-0.884368
1355.000000	-0.632330
1354.000000	-0.065955
1353.000000	-0.270844
1352.000000	10.000000
1351.000000	0.082948
1350.000000	10.000000
1349.000000	0.550919
1348.000000	-0.176082
1347.000000	0.091731
1346.000000	-0.043560
1345.000000	-0.244561
1344.000000	-0.636147
1343.000000	10.000000
1342.000000	-1.275783
1341.000000	-0.603581
1340.000000	-0.135170
1339.000000	-0.213076
1338.000000	-0.044247
1337.000000	0.052022
1336.000000	10.000000
1335.000000	10.000000
1334.000000	-1.087480
1333.000000	-0.620844
1332.000000	-0.090789
1331.000000	0.259990
1330.000000	-0.135957
1329.000000	-0.210596
1328.000000	10.000000
1327.000000	10.000000
1326.000000	-1.296055
1325.000000	-0.567719
1324.000000	-0.170244
1323.000000	-0.195549
1322.000000	-0.184513
1321.000000	-0.311853
1320.000000	-0.281682
1319.000000	0.197820
1318.000000	10.000000
1317.000000	-0.331431
1316.000000	-0.030114
1315.000000	-0.237036
1314.000000	0.120707
1313.000000	-0.065022
1312.000000	10.000000
1311.000000	10.000000
1310.000000	-0.217273
1309.000000	-0.521694
1308.000000	0.364971
1307.000000	0.059364
1306.000000	-0.130786
1305.000000	-0.254259
1304.000000	10.000000
1303.000000	10.000000
1302.000000	1.118465
1301.000000	-0.229218
1300.000000	0.030900
1299.000000	-0.401711
1298.000000	-0.065265
1297.000000	-0.056500
1296.000000	-0.554999
1295.000000	10.000000
1294.000000	-0.135165
1293.000000	-0.068606
1292.000000	-0.087283
1291.000000	-0.048528
1290.000000	-0.092092
1289.000000	10.000000
1288.000000	-0.316960
1287.000000	-1.424090
1286.000000	-0.194280
1285.000000	-0.533648
1284.000000	0.019017
1283.000000	-0.019504
1282.000000	10.000000
1281.000000	-0.297933
1280.000000	-0.102321
1279.000000	-0.133058
1278.000000	-0.228893
1277.000000	-0.393424
1276.000000	-0.034656
1275.000000	-0.055590
1274.000000	0.974337
1273.000000	-0.089122
1272.000000	0.594545
1271.000000	-0.314921
1270.000000	-0.769394
1269.000000	-0.263741
1268.000000	-0.192388
1267.000000	0.007097
1266.000000	10.000000
1265.000000	10.000000
1264.000000	-0.237870
1263.000000	-0.272436
1262.000000	0.356458
1261.000000	-0.102979
1260.000000	0.426388
1259.000000	10.000000
1258.000000	-0.200336
1257.000000	-0.180599
1256.000000	10.000000
1255.000000	10.000000
1254.000000	-0.312508
1253.000000	-0.023376
1252.000000	3.339142
1251.000000	7.783243
1250.000000	10.000000
1249.000000	-0.022720
1248.000000	0.012169
1247.000000	-0.319940
1246.000000	-0.263751
1245.000000	-0.402337
1244.000000	10.000000
1243.000000	0.703077
1242.000000	0.226369
1241.000000	-0.818264
1240.000000	-1.187887
1239.000000	-0.054782
1238.000000	0.006315
1237.000000	0.583806
1236.000000	10.000000
1235.000000	10.000000
1234.000000	-0.235943
1233.000000	-0.192308
1232.000000	0.005421
1231.000000	0.096965
1230.000000	0.746248
1229.000000	10.000000
1228.000000	10.000000
1227.000000	10.000000
1226.000000	0.327278
1225.000000	0.601415
1224.000000	-0.093795
1223.000000	10.000000
1222.000000	10.000000
1221.000000	0.076238
1220.000000	-0.226357
1219.000000	-0.276381
1218.000000	-0.313833
1217.000000	0.097198
1216.000000	0.129300
1215.000000	10.000000
1214.000000	10.000000
1213.000000	-0.082635
1212.000000	0.114050
1211.000000	0.272953
1210.000000	0.486650
1209.000000	0.345088
1208.000000	10.000000
1207.000000	10.000000
1206.000000	0.460078
1205.000000	-0.071213
1204.000000	0.061370
1203.000000	-0.406802
1202.000000	-0.510626
1201.000000	-0.199125
1200.000000	0.306727
1199.000000	-0.141719
1198.000000	-0.283825
1197.000000	-0.033899
1196.000000	0.097491
1195.000000	-0.263833
1194.000000	-0.195925
1193.000000	0.522845
1192.000000	0.577521
1191.000000	-0.071355
1190.000000	-0.086268
1189.000000	-0.118042
1188.000000	-0.002042
1187.000000	0.068126
1186.000000	-0.031843
1185.000000	0.353633
1184.000000	-0.256867
1183.000000	-0.193961
1182.000000	-0.729116
1181.000000	-0.576700
1180.000000	0.018339
1179.000000	0.236308
1178.000000	1.042988
1177.000000	10.000000
1176.000000	0.179590
1175.000000	-0.003573
1174.000000	-0.164212
1173.000000	-0.014629
1172.000000	0.226355
1171.000000	0.137039
1170.000000	-0.301694
1169.000000	-0.890065
1168.000000	-1.299020
1167.000000	-1.120337
1166.000000	-0.090157
1165.000000	-0.015024
1164.000000	-0.219307
1163.000000	10.000000
1162.000000	10.000000
1161.000000	0.076157
1160.000000	10.000000
1159.000000	0.678479
1158.000000	-0.001608
1157.000000	-0.202006
1156.000000	0.127283
1155.000000	1.175434
1154.000000	10.000000
1153.000000	0.209451
1152.000000	-0.041059
1151.000000	0.090766
1150.000000	0.173577
1149.000000	0.055922
1148.000000	10.000000
1147.000000	0.645943
1146.000000	-0.623238
1145.000000	-0.286019
1144.000000	-0.063993
1143.000000	0.103505
1142.000000	0.128300
1141.000000	0.107629
1140.000000	0.921028
1139.000000	-0.481974
1138.000000	-0.367881
1137.000000	0.194514
1136.000000	0.096929
1135.000000	0.510212
1134.000000	0.163686
1133.000000	10.000000
1132.000000	10.000000
1131.000000	0.084564
1130.000000	0.067010
1129.000000	-0.125956
1128.000000	0.128974
1127.000000	0.247285
1126.000000	-0.083818
1125.000000	0.696566
1124.000000	10.000000
1123.000000	-0.179418
1122.000000	-0.218088
1121.000000	0.150793
1120.000000	-0.163668
1119.000000	10.000000
1118.000000	-0.244080
1117.000000	10.000000
1116.000000	-0.045009
1115.000000	-0.238952
1114.000000	0.235333
1113.000000	0.052189
1112.000000	-0.045824
1111.000000	-0.144110
1110.000000	10.000000
1109.000000	10.000000
1108.000000	-0.457011
1107.000000	0.292746
1106.000000	0.010796
1105.000000	0.052347
1104.000000	0.004163
1103.000000	0.259549
1102.000000	-0.315607
1101.000000	0.318646
1100.000000	0.415757
1099.000000	-0.028272
1098.000000	0.112294
1097.000000	0.146245
1096.000000	0.127357
1095.000000	0.053714
1094.000000	10.000000
1093.000000	-0.226679
1092.000000	-0.155308
1091.000000	-0.027810
1090.000000	0.206789
1089.000000	-0.205294
1088.000000	-0.370723
1087.000000	0.121399
1086.000000	0.812874
1085.000000	10.000000
1084.000000	-0.708462
1083.000000	-0.396812
1082.000000	-0.037499
1081.000000	0.173492
1080.000000	10.000000
1079.000000	10.000000
1078.000000	10.000000
1077.000000	-0.137640
1076.000000	0.201350
1075.000000	0.247791
1074.000000	0.106435
1073.000000	-0.078194
1072.000000	0.063211
1071.000000	0.072578
1070.000000	-0.512560
1069.000000	-0.559196
1068.000000	-1.206109
1067.000000	-0.133262
1066.000000	0.099574
1065.000000	-0.008884
1064.000000	0.336855
1063.000000	0.012823
1062.000000	-0.470099
1061.000000	-0.747420
1060.000000	0.018714
1059.000000	0.126890
1058.000000	0.014415
1057.000000	-0.109864
1056.000000	0.192137
1055.000000	10.000000
1054.000000	-0.138879
1053.000000	-0.073884
1052.000000	0.027424
1051.000000	0.104835
1050.000000	0.175935
1049.000000	-0.331095
1048.000000	-0.798049
1047.000000	0.207316
1046.000000	-0.040217
1045.000000	0.026055
1044.000000	0.000685
1043.000000	0.000327
1042.000000	0.086953
1041.000000	0.334341
1040.000000	10.000000
1039.000000	10.000000
1038.000000	0.068192
1037.000000	0.130573
1036.000000	0.095858
1035.000000	-0.115092
1034.000000	-0.171757
1033.000000	0.203971
1032.000000	0.253960
1031.000000	-0.265290
1030.000000	-0.311079
1029.000000	0.066828
1028.000000	-0.055254
1027.000000	-0.080653
1026.000000	-0.064569
1025.000000	-0.034750
1024.000000	-0.468233
1023.000000	-0.609095
1022.000000	0.087581
1021.000000	0.101267
1020.000000	-0.189504
1019.000000	-0.165484
1018.000000	0.944815
1017.000000	10.000000
1016.000000	-0.035253
1015.000000	0.048225
1014.000000	0.263688
1013.000000	-0.226838
1012.000000	-0.270106
1011.000000	-0.066699
1010.000000	0.252326
1009.000000	10.000000
1008.000000	10.000000
1007.000000	0.083023
1006.000000	0.188818
1005.000000	0.235179
1004.000000	0.073286
1003.000000	-0.078168
1002.000000	0.229740
1001.000000	1.094098
1000.000000	-0.261770
999.000000	-0.391368
998.000000	-0.254477
997.000000	0.079885
996.000000	0.194622
995.000000	-0.408316
994.000000	-0.471423
993.000000	0.046338
992.000000	0.056481
991.000000	-0.000775
990.000000	-0.042488
989.000000	0.008576
988.000000	-0.271291
987.000000	-0.146106
986.000000	0.037431
985.000000	0.267033
984.000000	10.000000
983.000000	10.000000
982.000000	0.519555
981.000000	-0.042563
980.000000	0.026926
979.000000	-0.040164
978.000000	-0.004055
977.000000	0.455188
976.000000	10.000000
975.000000	10.000000
974.000000	0.276211
973.000000	0.179685
972.000000	0.094469
971.000000	-0.156672
970.000000	0.027651
969.000000	-0.031989
968.000000	-0.023893
967.000000	-0.499657
966.000000	-0.242246
965.000000	0.057951
964.000000	-0.077474
963.000000	-0.013045
962.000000	-0.076770
961.000000	0.145862
960.000000	2.198873
959.000000	-1.256112
958.000000	-0.920888
957.000000	-0.116486
956.000000	0.166277
955.000000	-0.067345
954.000000	0.089972
953.000000	0.241159
952.000000	0.465155
951.000000	-0.236050
950.000000	-0.240096
949.000000	0.054889
948.000000	0.074765
947.000000	0.077561
946.000000	0.338137
945.000000	0.297172
944.000000	0.678879
943.000000	-0.819838
942.000000	-0.319861
941.000000	-0.001193
940.000000	0.075203
939.000000	0.036955
938.000000	-0.037581
937.000000	0.387021
936.000000	0.305123
935.000000	0.241317
934.000000	-0.230003
933.000000	0.107024
932.000000	-0.041344
931.000000	0.191700
930.000000	0.218151
929.000000	0.040820
928.000000	-0.163975
927.000000	-0.299802
926.000000	0.333163
925.000000	-0.030881
924.000000	-0.156127
923.000000	-0.092231
922.000000	-0.062876
921.000000	0.448573
920.000000	0.190035
919.000000	-0.002490
918.000000	-0.163546
917.000000	0.375540
916.000000	-0.240393
915.000000	0.155620
914.000000	0.262100
913.000000	0.498871
912.000000	-0.692972
911.000000	-0.044980
910.000000	0.123131
909.000000	0.148368
908.000000	0.210456
907.000000	-0.097435
906.000000	-0.021855
905.000000	0.307915
904.000000	-0.131496
903.000000	-0.527979
902.000000	0.200624
901.000000	0.766836
900.000000	0.034461
899.000000	0.067135
898.000000	-0.165276
897.000000	0.022261
896.000000	0.307336
895.000000	-0.101490
894.000000	0.163023
893.000000	0.137486
892.000000	0.250177
891.000000	-0.081042
890.000000	-0.172955
889.000000	-0.262448
888.000000	0.026354
887.000000	-0.327238
886.000000	0.066978
885.000000	0.066791
884.000000	0.211088
883.000000	0.035381
882.000000	1.506437
881.000000	10.000000
880.000000	10.000000
879.000000	0.001862
878.000000	0.234603
877.000000	-0.006418
876.000000	0.023497
875.000000	0.079119
874.000000	10.000000
873.000000	10.000000
872.000000	0.246649
871.000000	0.159140
870.000000	0.096795
869.000000	-0.187938
868.000000	0.034876
867.000000	-0.154094
866.000000	-0.309812
865.000000	-0.594566
864.000000	0.015775
863.000000	0.024501
862.000000	0.157345
861.000000	0.137486
860.000000	0.013289
859.000000	0.485200
858.000000	1.279919
857.000000	0.166115
856.000000	0.206618
855.000000	0.124402
854.000000	0.165665
853.000000	0.207660
852.000000	0.060510
851.000000	-0.503313
850.000000	-0.731638
849.000000	-0.090450
848.000000	-0.200347
847.000000	0.326762
846.000000	0.561645
845.000000	0.422961
844.000000	0.219531
843.000000	0.858707
842.000000	0.587168
841.000000	0.153000
840.000000	0.319319
839.000000	0.007812
838.000000	-0.145901
837.000000	-0.071751
836.000000	-0.133971
835.000000	-0.287167
834.000000	-0.410910
833.000000	0.273258
832.000000	0.580758
831.000000	0.564968
830.000000	-0.146154
829.000000	-0.112365
828.000000	-0.052517
827.000000	0.447413
826.000000	0.084311
825.000000	0.314747
824.000000	0.408946
823.000000	0.566655
822.000000	0.017048
821.000000	-0.208775
820.000000	-0.240730
819.000000	-0.754322
818.000000	-0.311176
817.000000	-3.031809
816.000000	-3.042787
815.000000	-0.128997
814.000000	-0.270327
813.000000	-0.278890
812.000000	-0.103754
811.000000	-0.009893
810.000000	0.432092
809.000000	1.163702
808.000000	0.933506
807.000000	-0.190789
806.000000	0.108683
805.000000	0.373295
804.000000	0.100374
803.000000	-0.063806
802.000000	-0.041199
801.000000	-0.021992
800.000000	-0.018241
