"yellow-drop-2 - RawData - C:\Documents and Settings\uvvis\Desktop\w\File_260418_223755.spc"
"Wavelength nm.","Abs."
200.00,1.667
200.50,1.498
201.00,1.503
201.50,1.596
202.00,1.597
202.50,1.449
203.00,1.306
203.50,1.289
204.00,1.307
204.50,1.301
205.00,1.332
205.50,1.259
206.00,1.277
206.50,1.194
207.00,1.103
207.50,1.118
208.00,1.062
208.50,0.973
209.00,1.013
209.50,0.926
210.00,0.885
210.50,0.844
211.00,0.792
211.50,0.794
212.00,0.710
212.50,0.662
213.00,0.620
213.50,0.619
214.00,0.618
214.50,0.569
215.00,0.603
215.50,0.561
216.00,0.544
216.50,0.553
217.00,0.537
217.50,0.514
218.00,0.536
218.50,0.551
219.00,0.568
219.50,0.552
220.00,0.585
220.50,0.579
221.00,0.595
221.50,0.596
222.00,0.641
222.50,0.666
223.00,0.671
223.50,0.694
224.00,0.710
224.50,0.742
225.00,0.744
225.50,0.738
226.00,0.747
226.50,0.798
227.00,0.813
227.50,0.811
228.00,0.812
228.50,0.839
229.00,0.855
229.50,0.848
230.00,0.829
230.50,0.846
231.00,0.839
231.50,0.861
232.00,0.866
232.50,0.859
233.00,0.860
233.50,0.862
234.00,0.875
234.50,0.864
235.00,0.868
235.50,0.863
236.00,0.871
236.50,0.850
237.00,0.808
237.50,0.802
238.00,0.785
238.50,0.762
239.00,0.743
239.50,0.714
240.00,0.698
240.50,0.700
241.00,0.682
241.50,0.664
242.00,0.642
242.50,0.636
243.00,0.632
243.50,0.617
244.00,0.645
244.50,0.644
245.00,0.627
245.50,0.642
246.00,0.644
246.50,0.620
247.00,0.629
247.50,0.628
248.00,0.638
248.50,0.637
249.00,0.614
249.50,0.620
250.00,0.621
250.50,0.612
251.00,0.616
251.50,0.618
252.00,0.649
252.50,0.648
253.00,0.648
253.50,0.651
254.00,0.661
254.50,0.649
255.00,0.630
255.50,0.609
256.00,0.618
256.50,0.583
257.00,0.561
257.50,0.545
258.00,0.511
258.50,0.474
259.00,0.436
259.50,0.396
260.00,0.368
260.50,0.348
261.00,0.315
261.50,0.291
262.00,0.280
262.50,0.270
263.00,0.255
263.50,0.235
264.00,0.221
264.50,0.219
265.00,0.219
265.50,0.211
266.00,0.204
266.50,0.207
267.00,0.194
267.50,0.199
268.00,0.184
268.50,0.185
269.00,0.187
269.50,0.201
270.00,0.192
270.50,0.202
271.00,0.197
271.50,0.190
272.00,0.202
272.50,0.206
273.00,0.207
273.50,0.216
274.00,0.216
274.50,0.223
275.00,0.226
275.50,0.241
276.00,0.259
276.50,0.260
277.00,0.255
277.50,0.262
278.00,0.278
278.50,0.261
279.00,0.280
279.50,0.270
280.00,0.270
280.50,0.287
281.00,0.281
281.50,0.295
282.00,0.301
282.50,0.294
283.00,0.316
283.50,0.310
284.00,0.312
284.50,0.329
285.00,0.339
285.50,0.363
286.00,0.366
286.50,0.371
287.00,0.377
287.50,0.400
288.00,0.385
288.50,0.377
289.00,0.401
289.50,0.402
290.00,0.437
290.50,0.451
291.00,0.454
291.50,0.449
292.00,0.464
292.50,0.471
293.00,0.476
293.50,0.477
294.00,0.489
294.50,0.492
295.00,0.491
295.50,0.496
296.00,0.505
296.50,0.498
297.00,0.501
297.50,0.503
298.00,0.505
298.50,0.499
299.00,0.502
299.50,0.493
300.00,0.492
300.50,0.466
301.00,0.452
301.50,0.441
302.00,0.442
302.50,0.424
303.00,0.406
303.50,0.401
304.00,0.381
304.50,0.382
305.00,0.370
305.50,0.365
306.00,0.356
306.50,0.339
307.00,0.330
307.50,0.323
308.00,0.326
308.50,0.311
309.00,0.308
309.50,0.287
310.00,0.313
310.50,0.291
311.00,0.261
311.50,0.246
312.00,0.254
312.50,0.253
313.00,0.245
313.50,0.230
314.00,0.244
314.50,0.219
315.00,0.213
315.50,0.217
316.00,0.204
316.50,0.222
317.00,0.199
317.50,0.182
318.00,0.178
318.50,0.181
319.00,0.178
319.50,0.167
320.00,0.171
320.50,0.157
321.00,0.176
321.50,0.169
322.00,0.148
322.50,0.149
323.00,0.153
323.50,0.152
324.00,0.151
324.50,0.128
325.00,0.143
325.50,0.138
326.00,0.146
326.50,0.143
327.00,0.123
327.50,0.132
328.00,0.129
328.50,0.125
329.00,0.123
329.50,0.127
330.00,0.126
330.50,0.115
331.00,0.105
331.50,0.099
332.00,0.105
332.50,0.105
333.00,0.111
333.50,0.101
334.00,0.106
334.50,0.094
335.00,0.089
335.50,0.072
336.00,0.064
336.50,0.065
337.00,0.082
337.50,0.086
338.00,0.080
338.50,0.066
339.00,0.063
339.50,0.059
340.00,0.055
340.50,0.049
341.00,0.043
341.50,0.050
342.00,0.057
342.50,0.060
343.00,0.058
343.50,0.048
344.00,0.058
344.50,0.063
345.00,0.053
345.50,0.058
346.00,0.053
346.50,0.046
347.00,0.060
347.50,0.059
348.00,0.053
348.50,0.053
349.00,0.041
349.50,0.043
350.00,0.048
350.50,0.061
351.00,0.056
351.50,0.051
352.00,0.069
352.50,0.065
353.00,0.061
353.50,0.060
354.00,0.062
354.50,0.069
355.00,0.073
355.50,0.076
356.00,0.083
356.50,0.067
357.00,0.065
357.50,0.068
358.00,0.067
358.50,0.066
359.00,0.071
359.50,0.065
360.00,0.075
360.50,0.073
361.00,0.096
361.50,0.082
362.00,0.091
362.50,0.100
363.00,0.098
363.50,0.090
364.00,0.092
364.50,0.101
365.00,0.100
365.50,0.105
366.00,0.098
366.50,0.108
367.00,0.104
367.50,0.107
368.00,0.117
368.50,0.121
369.00,0.124
369.50,0.131
370.00,0.123
370.50,0.126
371.00,0.125
371.50,0.127
372.00,0.128
372.50,0.137
373.00,0.122
373.50,0.129
374.00,0.126
374.50,0.134
375.00,0.140
375.50,0.138
376.00,0.130
376.50,0.130
377.00,0.130
377.50,0.134
378.00,0.142
378.50,0.139
379.00,0.137
379.50,0.145
380.00,0.149
380.50,0.147
381.00,0.150
381.50,0.152
382.00,0.157
382.50,0.152
383.00,0.164
383.50,0.170
384.00,0.169
384.50,0.175
385.00,0.174
385.50,0.184
386.00,0.190
386.50,0.186
387.00,0.187
387.50,0.193
388.00,0.180
388.50,0.191
389.00,0.199
389.50,0.197
390.00,0.193
390.50,0.184
391.00,0.199
391.50,0.198
392.00,0.194
392.50,0.197
393.00,0.194
393.50,0.198
394.00,0.204
394.50,0.201
395.00,0.192
395.50,0.193
396.00,0.196
396.50,0.194
397.00,0.198
397.50,0.188
398.00,0.193
398.50,0.190
399.00,0.196
399.50,0.199
400.00,0.189
400.50,0.196
401.00,0.201
401.50,0.195
402.00,0.212
402.50,0.197
403.00,0.201
403.50,0.202
404.00,0.207
404.50,0.208
405.00,0.208
405.50,0.213
406.00,0.219
406.50,0.227
407.00,0.234
407.50,0.234
408.00,0.238
408.50,0.236
409.00,0.242
409.50,0.244
410.00,0.256
410.50,0.259
411.00,0.270
411.50,0.267
412.00,0.267
412.50,0.269
413.00,0.278
413.50,0.285
414.00,0.287
414.50,0.300
415.00,0.299
415.50,0.307
416.00,0.317
416.50,0.319
417.00,0.326
417.50,0.330
418.00,0.341
418.50,0.351
419.00,0.353
419.50,0.357
420.00,0.366
420.50,0.378
421.00,0.381
421.50,0.393
422.00,0.392
422.50,0.408
423.00,0.413
423.50,0.412
424.00,0.424
424.50,0.434
425.00,0.437
425.50,0.445
426.00,0.458
426.50,0.464
427.00,0.469
427.50,0.475
428.00,0.486
428.50,0.496
429.00,0.492
429.50,0.503
430.00,0.512
430.50,0.515
431.00,0.526
431.50,0.530
432.00,0.539
432.50,0.540
433.00,0.548
433.50,0.559
434.00,0.560
434.50,0.570
435.00,0.581
435.50,0.580
436.00,0.587
436.50,0.591
437.00,0.594
437.50,0.610
438.00,0.610
438.50,0.615
439.00,0.623
439.50,0.630
440.00,0.631
440.50,0.640
441.00,0.651
441.50,0.660
442.00,0.665
442.50,0.661
443.00,0.672
443.50,0.674
444.00,0.682
444.50,0.685
445.00,0.695
445.50,0.691
446.00,0.691
446.50,0.697
447.00,0.702
447.50,0.711
448.00,0.718
448.50,0.720
449.00,0.718
449.50,0.719
450.00,0.723
450.50,0.725
451.00,0.727
451.50,0.725
452.00,0.728
452.50,0.732
453.00,0.732
453.50,0.733
454.00,0.737
454.50,0.729
455.00,0.725
455.50,0.728
456.00,0.722
456.50,0.724
457.00,0.722
457.50,0.717
458.00,0.714
458.50,0.708
459.00,0.706
459.50,0.702
460.00,0.688
460.50,0.688
461.00,0.684
461.50,0.676
462.00,0.667
462.50,0.665
463.00,0.653
463.50,0.643
464.00,0.637
464.50,0.628
465.00,0.615
465.50,0.608
466.00,0.599
466.50,0.589
467.00,0.584
467.50,0.573
468.00,0.562
468.50,0.552
469.00,0.543
469.50,0.529
470.00,0.508
470.50,0.506
471.00,0.492
471.50,0.479
472.00,0.463
472.50,0.460
473.00,0.446
473.50,0.432
474.00,0.417
474.50,0.401
475.00,0.389
475.50,0.379
476.00,0.368
476.50,0.351
477.00,0.338
477.50,0.330
478.00,0.312
478.50,0.305
479.00,0.296
479.50,0.286
480.00,0.275
480.50,0.262
481.00,0.252
481.50,0.245
482.00,0.230
482.50,0.215
483.00,0.209
483.50,0.198
484.00,0.189
484.50,0.184
485.00,0.176
485.50,0.165
486.00,0.157
486.50,0.152
487.00,0.141
487.50,0.135
488.00,0.122
488.50,0.120
489.00,0.115
489.50,0.108
490.00,0.105
490.50,0.098
491.00,0.095
491.50,0.086
492.00,0.081
492.50,0.077
493.00,0.071
493.50,0.068
494.00,0.064
494.50,0.063
495.00,0.057
495.50,0.054
496.00,0.048
496.50,0.046
497.00,0.043
497.50,0.041
498.00,0.038
498.50,0.035
499.00,0.034
499.50,0.035
500.00,0.036
500.50,0.029
501.00,0.029
501.50,0.029
502.00,0.026
502.50,0.024
503.00,0.027
503.50,0.026
504.00,0.028
504.50,0.025
505.00,0.021
505.50,0.019
506.00,0.020
506.50,0.017
507.00,0.015
507.50,0.016
508.00,0.017
508.50,0.016
509.00,0.018
509.50,0.015
510.00,0.015
510.50,0.015
511.00,0.014
511.50,0.015
512.00,0.012
512.50,0.013
513.00,0.013
513.50,0.016
514.00,0.015
514.50,0.014
515.00,0.010
515.50,0.010
516.00,0.008
516.50,0.014
517.00,0.009
517.50,0.010
518.00,0.009
518.50,0.011
519.00,0.012
519.50,0.011
520.00,0.012
520.50,0.008
521.00,0.008
521.50,0.010
522.00,0.004
522.50,0.008
523.00,0.010
523.50,0.011
524.00,0.010
524.50,0.010
525.00,0.007
525.50,0.012
526.00,0.008
526.50,0.008
527.00,0.011
527.50,0.008
528.00,0.011
528.50,0.006
529.00,0.007
529.50,0.006
530.00,0.008
530.50,0.007
531.00,0.008
531.50,0.009
532.00,0.006
532.50,0.009
533.00,0.010
533.50,0.009
534.00,0.010
534.50,0.007
535.00,0.009
535.50,0.005
536.00,0.006
536.50,0.007
537.00,0.004
537.50,0.005
538.00,0.011
538.50,0.008
539.00,0.009
539.50,0.007
540.00,0.007
540.50,0.006
541.00,0.004
541.50,0.002
542.00,0.007
542.50,0.005
543.00,0.004
543.50,0.007
544.00,0.009
544.50,0.009
545.00,0.006
545.50,0.010
546.00,0.008
546.50,0.009
547.00,0.009
547.50,0.011
548.00,0.008
548.50,0.007
549.00,0.009
549.50,0.011
550.00,0.012
550.50,0.009
551.00,0.008
551.50,0.004
552.00,0.007
552.50,0.006
553.00,0.009
553.50,0.010
554.00,0.010
554.50,0.005
555.00,0.007
555.50,0.008
556.00,0.006
556.50,0.007
557.00,0.004
557.50,0.004
558.00,0.007
558.50,0.005
559.00,0.006
559.50,0.008
560.00,0.007
560.50,0.008
561.00,0.006
561.50,0.011
562.00,0.007
562.50,0.013
563.00,0.006
563.50,0.006
564.00,0.005
564.50,0.004
565.00,0.009
565.50,0.007
566.00,0.006
566.50,0.006
567.00,0.006
567.50,0.008
568.00,0.011
568.50,0.007
569.00,0.006
569.50,0.008
570.00,0.006
570.50,0.006
571.00,0.005
571.50,0.004
572.00,0.009
572.50,0.007
573.00,0.007
573.50,0.006
574.00,0.006
574.50,0.005
575.00,0.006
575.50,0.009
576.00,0.008
576.50,0.005
577.00,0.007
577.50,0.007
578.00,0.001
578.50,0.008
579.00,0.006
579.50,0.008
580.00,0.009
580.50,0.008
581.00,0.008
581.50,0.003
582.00,0.006
582.50,0.003
583.00,0.002
583.50,0.003
584.00,0.006
584.50,0.001
585.00,0.003
585.50,0.003
586.00,0.006
586.50,0.009
587.00,0.008
587.50,0.006
588.00,0.002
588.50,0.004
589.00,0.008
589.50,0.009
590.00,0.008
590.50,0.009
591.00,0.008
591.50,0.008
592.00,0.006
592.50,0.009
593.00,0.005
593.50,0.001
594.00,0.007
594.50,0.007
595.00,0.013
595.50,0.009
596.00,0.012
596.50,0.012
597.00,0.010
597.50,0.010
598.00,0.009
598.50,0.007
599.00,0.006
599.50,0.008
600.00,0.004
600.50,0.001
601.00,0.007
601.50,0.008
602.00,0.002
602.50,0.004
603.00,0.006
603.50,0.006
604.00,0.006
604.50,0.009
605.00,0.009
605.50,0.011
606.00,0.009
606.50,0.006
607.00,0.008
607.50,0.007
608.00,0.007
608.50,0.010
609.00,0.005
609.50,0.007
610.00,0.005
610.50,0.006
611.00,0.008
611.50,0.010
612.00,0.007
612.50,0.008
613.00,0.008
613.50,0.005
614.00,0.010
614.50,0.005
615.00,0.006
615.50,0.006
616.00,0.006
616.50,0.009
617.00,0.009
617.50,0.007
618.00,0.005
618.50,0.008
619.00,0.015
619.50,0.009
620.00,0.005
620.50,0.009
621.00,0.007
621.50,0.008
622.00,0.007
622.50,0.006
623.00,0.009
623.50,0.007
624.00,0.007
624.50,0.007
625.00,0.008
625.50,0.012
626.00,0.003
626.50,0.008
627.00,0.009
627.50,0.009
628.00,0.011
628.50,0.014
629.00,0.012
629.50,0.010
630.00,0.008
630.50,0.006
631.00,0.008
631.50,0.008
632.00,0.007
632.50,0.004
633.00,0.007
633.50,0.005
634.00,0.008
634.50,0.008
635.00,0.008
635.50,0.008
636.00,0.011
636.50,0.008
637.00,0.008
637.50,0.009
638.00,0.006
638.50,0.002
639.00,0.004
639.50,0.008
640.00,0.005
640.50,0.006
641.00,0.007
641.50,0.013
642.00,0.009
642.50,0.007
643.00,0.003
643.50,0.002
644.00,0.010
644.50,0.014
645.00,0.006
645.50,0.007
646.00,0.010
646.50,0.011
647.00,0.013
647.50,0.010
648.00,0.005
648.50,0.006
649.00,0.008
649.50,0.011
650.00,0.010
650.50,0.011
651.00,0.007
651.50,0.004
652.00,0.010
652.50,0.009
653.00,0.006
653.50,0.010
654.00,0.010
654.50,0.008
655.00,0.006
655.50,0.009
656.00,0.011
656.50,0.008
657.00,0.004
657.50,0.005
658.00,0.006
658.50,0.007
659.00,0.014
659.50,0.010
660.00,0.006
660.50,0.008
661.00,0.002
661.50,0.006
662.00,0.010
662.50,0.007
663.00,0.007
663.50,0.008
664.00,0.009
664.50,0.009
665.00,0.011
665.50,0.006
666.00,0.008
666.50,0.007
667.00,0.010
667.50,0.006
668.00,0.007
668.50,0.011
669.00,0.007
669.50,0.005
670.00,0.004
670.50,0.005
671.00,0.012
671.50,0.008
672.00,0.008
672.50,0.009
673.00,0.011
673.50,0.008
674.00,0.011
674.50,0.016
675.00,0.012
675.50,0.010
676.00,0.007
676.50,0.008
677.00,0.005
677.50,0.007
678.00,0.008
678.50,0.003
679.00,0.012
679.50,0.015
680.00,0.015
680.50,0.009
681.00,0.010
681.50,0.006
682.00,0.007
682.50,0.006
683.00,0.002
683.50,0.002
684.00,0.007
684.50,0.013
685.00,0.007
685.50,0.006
686.00,0.005
686.50,0.004
687.00,0.010
687.50,0.010
688.00,0.012
688.50,0.016
689.00,0.016
689.50,0.015
690.00,0.013
690.50,0.008
691.00,0.002
691.50,0.010
692.00,0.007
692.50,0.010
693.00,0.013
693.50,0.010
694.00,0.006
694.50,0.011
695.00,0.009
695.50,0.005
696.00,0.007
696.50,0.010
697.00,0.009
697.50,0.012
698.00,0.013
698.50,0.013
699.00,0.006
699.50,0.010
700.00,0.016
700.50,0.009
701.00,0.012
701.50,0.008
702.00,0.011
702.50,0.011
703.00,0.011
703.50,0.013
704.00,0.011
704.50,0.006
705.00,0.007
705.50,0.010
706.00,0.006
706.50,0.013
707.00,0.012
707.50,0.007
708.00,0.004
708.50,0.011
709.00,0.007
709.50,0.006
710.00,0.007
710.50,0.009
711.00,0.010
711.50,0.009
712.00,0.015
712.50,0.005
713.00,0.015
713.50,0.005
714.00,0.008
714.50,0.004
715.00,0.008
715.50,0.005
716.00,0.007
716.50,0.006
717.00,0.008
717.50,0.013
718.00,0.011
718.50,0.014
719.00,0.008
719.50,0.013
720.00,0.016
720.50,0.010
721.00,0.007
721.50,0.005
722.00,0.006
722.50,0.011
723.00,0.006
723.50,0.002
724.00,0.003
724.50,0.009
725.00,0.001
725.50,0.012
726.00,0.007
726.50,0.013
727.00,0.006
727.50,0.006
728.00,0.004
728.50,0.005
729.00,0.014
729.50,0.014
730.00,0.010
730.50,0.010
731.00,0.011
731.50,0.003
732.00,0.004
732.50,0.006
733.00,0.002
733.50,0.002
734.00,0.003
734.50,0.008
735.00,0.010
735.50,0.014
736.00,0.005
736.50,0.002
737.00,0.005
737.50,0.004
738.00,0.009
738.50,0.007
739.00,-0.001
739.50,0.002
740.00,0.005
740.50,0.015
741.00,0.010
741.50,0.011
742.00,0.006
742.50,0.002
743.00,0.001
743.50,0.013
744.00,0.019
744.50,0.013
745.00,0.011
745.50,0.005
746.00,0.007
746.50,0.008
747.00,0.004
747.50,0.009
748.00,0.017
748.50,0.015
749.00,0.008
749.50,0.010
750.00,0.014
750.50,0.002
751.00,0.003
751.50,0.007
752.00,0.016
752.50,0.013
753.00,0.016
753.50,0.013
754.00,0.013
754.50,0.010
755.00,0.009
755.50,0.010
756.00,0.012
756.50,0.006
757.00,0.006
757.50,0.016
758.00,0.012
758.50,0.013
759.00,0.004
759.50,0.008
760.00,0.003
760.50,0.009
761.00,0.002
761.50,0.004
762.00,0.008
762.50,0.008
763.00,0.009
763.50,0.012
764.00,0.014
764.50,0.007
765.00,0.007
765.50,0.008
766.00,0.010
766.50,0.008
767.00,0.011
767.50,0.007
768.00,0.008
768.50,0.008
769.00,0.003
769.50,0.006
770.00,0.001
770.50,0.007
771.00,0.001
771.50,0.007
772.00,0.006
772.50,0.002
773.00,0.007
773.50,0.017
774.00,0.012
774.50,0.008
775.00,0.006
775.50,-0.004
776.00,0.012
776.50,0.009
777.00,0.007
777.50,0.005
778.00,0.012
778.50,0.002
779.00,0.002
779.50,0.004
780.00,0.011
780.50,0.012
781.00,0.004
781.50,0.005
782.00,0.008
782.50,-0.000
783.00,0.011
783.50,0.012
784.00,0.010
784.50,0.008
785.00,0.010
785.50,0.002
786.00,0.008
786.50,0.009
787.00,0.003
787.50,0.007
788.00,0.008
788.50,0.011
789.00,0.013
789.50,0.009
790.00,0.008
790.50,0.007
791.00,0.001
791.50,0.005
792.00,0.004
792.50,-0.004
793.00,0.000
793.50,0.003
794.00,0.001
794.50,0.008
795.00,0.013
795.50,0.005
796.00,0.005
796.50,0.013
797.00,0.011
797.50,-0.001
798.00,0.004
798.50,-0.005
799.00,0.002
799.50,-0.007
800.00,0.000
