"Storage 211028 - RawData - C:\Documents and Settings\uvvis\Desktop\n\File_260414_211028.spc"
"Wavelength nm.","Abs."
190.00,0.741
190.50,0.899
191.00,0.802
191.50,0.799
192.00,0.833
192.50,0.935
193.00,1.002
193.50,0.863
194.00,0.805
194.50,0.814
195.00,0.805
195.50,0.741
196.00,0.690
196.50,0.865
197.00,0.774
197.50,0.719
198.00,0.682
198.50,0.662
199.00,0.754
199.50,0.835
200.00,0.829
200.50,0.770
201.00,0.762
201.50,0.762
202.00,0.733
202.50,0.716
203.00,0.694
203.50,0.739
204.00,0.685
204.50,0.681
205.00,0.671
205.50,0.636
206.00,0.600
206.50,0.579
207.00,0.548
207.50,0.538
208.00,0.505
208.50,0.489
209.00,0.474
209.50,0.440
210.00,0.448
210.50,0.397
211.00,0.402
211.50,0.381
212.00,0.385
212.50,0.345
213.00,0.340
213.50,0.316
214.00,0.304
214.50,0.276
215.00,0.286
215.50,0.281
216.00,0.275
216.50,0.267
217.00,0.254
217.50,0.278
218.00,0.265
218.50,0.264
219.00,0.258
219.50,0.265
220.00,0.263
220.50,0.263
221.00,0.287
221.50,0.292
222.00,0.312
222.50,0.302
223.00,0.311
223.50,0.336
224.00,0.325
224.50,0.335
225.00,0.367
225.50,0.371
226.00,0.379
226.50,0.388
227.00,0.397
227.50,0.387
228.00,0.399
228.50,0.414
229.00,0.409
229.50,0.420
230.00,0.413
230.50,0.415
231.00,0.414
231.50,0.404
232.00,0.421
232.50,0.439
233.00,0.423
233.50,0.423
234.00,0.420
234.50,0.425
235.00,0.431
235.50,0.398
236.00,0.414
236.50,0.397
237.00,0.387
237.50,0.384
238.00,0.377
238.50,0.380
239.00,0.363
239.50,0.365
240.00,0.352
240.50,0.333
241.00,0.327
241.50,0.335
242.00,0.314
242.50,0.319
243.00,0.320
243.50,0.307
244.00,0.321
244.50,0.302
245.00,0.303
245.50,0.310
246.00,0.307
246.50,0.292
247.00,0.307
247.50,0.315
248.00,0.312
248.50,0.305
249.00,0.303
249.50,0.308
250.00,0.305
250.50,0.307
251.00,0.307
251.50,0.309
252.00,0.299
252.50,0.307
253.00,0.310
253.50,0.317
254.00,0.310
254.50,0.305
255.00,0.306
255.50,0.311
256.00,0.300
256.50,0.278
257.00,0.285
257.50,0.267
258.00,0.254
258.50,0.220
259.00,0.205
259.50,0.186
260.00,0.192
260.50,0.171
261.00,0.158
261.50,0.149
262.00,0.156
262.50,0.137
263.00,0.123
263.50,0.121
264.00,0.107
264.50,0.104
265.00,0.108
265.50,0.116
266.00,0.116
266.50,0.112
267.00,0.106
267.50,0.096
268.00,0.102
268.50,0.107
269.00,0.098
269.50,0.100
270.00,0.104
270.50,0.110
271.00,0.109
271.50,0.096
272.00,0.100
272.50,0.106
273.00,0.100
273.50,0.111
274.00,0.120
274.50,0.107
275.00,0.112
275.50,0.120
276.00,0.121
276.50,0.132
277.00,0.126
277.50,0.131
278.00,0.120
278.50,0.131
279.00,0.132
279.50,0.146
280.00,0.140
280.50,0.150
281.00,0.151
281.50,0.163
282.00,0.155
282.50,0.153
283.00,0.161
283.50,0.156
284.00,0.152
284.50,0.167
285.00,0.180
285.50,0.185
286.00,0.183
286.50,0.179
287.00,0.186
287.50,0.186
288.00,0.191
288.50,0.197
289.00,0.204
289.50,0.207
290.00,0.206
290.50,0.222
291.00,0.222
291.50,0.218
292.00,0.226
292.50,0.227
293.00,0.229
293.50,0.233
294.00,0.232
294.50,0.245
295.00,0.264
295.50,0.252
296.00,0.254
296.50,0.245
297.00,0.242
297.50,0.240
298.00,0.261
298.50,0.247
299.00,0.231
299.50,0.243
300.00,0.225
300.50,0.224
301.00,0.207
301.50,0.205
302.00,0.214
302.50,0.212
303.00,0.214
303.50,0.201
304.00,0.200
304.50,0.184
305.00,0.179
305.50,0.176
306.00,0.171
306.50,0.178
307.00,0.158
307.50,0.154
308.00,0.160
308.50,0.156
309.00,0.163
309.50,0.153
310.00,0.135
310.50,0.145
311.00,0.115
311.50,0.134
312.00,0.127
312.50,0.121
313.00,0.130
313.50,0.135
314.00,0.120
314.50,0.131
315.00,0.125
315.50,0.121
316.00,0.101
316.50,0.113
317.00,0.091
317.50,0.097
318.00,0.099
318.50,0.098
319.00,0.110
319.50,0.109
320.00,0.101
320.50,0.085
321.00,0.087
321.50,0.080
322.00,0.072
322.50,0.075
323.00,0.084
323.50,0.073
324.00,0.073
324.50,0.071
325.00,0.061
325.50,0.062
326.00,0.049
326.50,0.049
327.00,0.050
327.50,0.047
328.00,0.056
328.50,0.056
329.00,0.066
329.50,0.064
330.00,0.048
330.50,0.031
331.00,0.026
331.50,0.041
332.00,0.064
332.50,0.038
333.00,0.049
333.50,0.048
334.00,0.039
334.50,0.039
335.00,0.045
335.50,0.033
336.00,0.040
336.50,0.029
337.00,0.024
337.50,0.032
338.00,0.037
338.50,0.035
339.00,0.010
339.50,0.044
340.00,0.024
340.50,0.034
341.00,0.036
341.50,0.031
342.00,0.026
342.50,0.039
343.00,0.030
343.50,0.021
344.00,0.020
344.50,0.012
345.00,0.022
345.50,0.030
346.00,0.045
346.50,0.038
347.00,0.027
347.50,0.028
348.00,0.039
348.50,0.024
349.00,0.033
349.50,0.032
350.00,0.034
350.50,0.026
351.00,0.027
351.50,0.036
352.00,0.017
352.50,0.035
353.00,0.031
353.50,0.027
354.00,0.029
354.50,0.034
355.00,0.044
355.50,0.032
356.00,0.038
356.50,0.034
357.00,0.036
357.50,0.043
358.00,0.041
358.50,0.041
359.00,0.051
359.50,0.042
360.00,0.039
360.50,0.037
361.00,0.045
361.50,0.051
362.00,0.046
362.50,0.060
363.00,0.057
363.50,0.047
364.00,0.060
364.50,0.046
365.00,0.062
365.50,0.049
366.00,0.055
366.50,0.054
367.00,0.057
367.50,0.047
368.00,0.052
368.50,0.059
369.00,0.053
369.50,0.055
370.00,0.063
370.50,0.067
371.00,0.074
371.50,0.064
372.00,0.072
372.50,0.061
373.00,0.059
373.50,0.059
374.00,0.056
374.50,0.063
375.00,0.067
375.50,0.066
376.00,0.074
376.50,0.072
377.00,0.066
377.50,0.061
378.00,0.061
378.50,0.071
379.00,0.070
379.50,0.066
380.00,0.069
380.50,0.069
381.00,0.081
381.50,0.071
382.00,0.070
382.50,0.067
383.00,0.080
383.50,0.079
384.00,0.082
384.50,0.085
385.00,0.083
385.50,0.086
386.00,0.090
386.50,0.082
387.00,0.088
387.50,0.091
388.00,0.089
388.50,0.096
389.00,0.094
389.50,0.088
390.00,0.091
390.50,0.090
391.00,0.095
391.50,0.100
392.00,0.101
392.50,0.096
393.00,0.095
393.50,0.097
394.00,0.090
394.50,0.099
395.00,0.096
395.50,0.094
396.00,0.096
396.50,0.088
397.00,0.092
397.50,0.087
398.00,0.092
398.50,0.093
399.00,0.101
399.50,0.102
400.00,0.100
400.50,0.100
401.00,0.104
401.50,0.103
402.00,0.100
402.50,0.093
403.00,0.093
403.50,0.098
404.00,0.095
404.50,0.100
405.00,0.100
405.50,0.104
406.00,0.116
406.50,0.113
407.00,0.107
407.50,0.111
408.00,0.109
408.50,0.119
409.00,0.115
409.50,0.114
410.00,0.118
410.50,0.122
411.00,0.128
411.50,0.127
412.00,0.131
412.50,0.139
413.00,0.138
413.50,0.133
414.00,0.134
414.50,0.137
415.00,0.143
415.50,0.143
416.00,0.148
416.50,0.148
417.00,0.150
417.50,0.161
418.00,0.163
418.50,0.161
419.00,0.167
419.50,0.169
420.00,0.173
420.50,0.176
421.00,0.182
421.50,0.189
422.00,0.186
422.50,0.200
423.00,0.199
423.50,0.199
424.00,0.201
424.50,0.208
425.00,0.214
425.50,0.211
426.00,0.214
426.50,0.222
427.00,0.225
427.50,0.227
428.00,0.225
428.50,0.233
429.00,0.234
429.50,0.237
430.00,0.245
430.50,0.242
431.00,0.251
431.50,0.253
432.00,0.253
432.50,0.260
433.00,0.259
433.50,0.260
434.00,0.262
434.50,0.268
435.00,0.269
435.50,0.272
436.00,0.281
436.50,0.279
437.00,0.282
437.50,0.282
438.00,0.290
438.50,0.292
439.00,0.293
439.50,0.296
440.00,0.296
440.50,0.303
441.00,0.302
441.50,0.304
442.00,0.306
442.50,0.314
443.00,0.310
443.50,0.313
444.00,0.317
444.50,0.321
445.00,0.320
445.50,0.325
446.00,0.329
446.50,0.325
447.00,0.324
447.50,0.335
448.00,0.327
448.50,0.335
449.00,0.339
449.50,0.342
450.00,0.345
450.50,0.342
451.00,0.341
451.50,0.347
452.00,0.346
452.50,0.343
453.00,0.335
453.50,0.338
454.00,0.341
454.50,0.341
455.00,0.344
455.50,0.340
456.00,0.340
456.50,0.338
457.00,0.338
457.50,0.335
458.00,0.332
458.50,0.332
459.00,0.331
459.50,0.329
460.00,0.330
460.50,0.329
461.00,0.321
461.50,0.316
462.00,0.315
462.50,0.308
463.00,0.300
463.50,0.305
464.00,0.299
464.50,0.294
465.00,0.286
465.50,0.287
466.00,0.281
466.50,0.278
467.00,0.277
467.50,0.274
468.00,0.267
468.50,0.261
469.00,0.255
469.50,0.244
470.00,0.243
470.50,0.237
471.00,0.228
471.50,0.224
472.00,0.218
472.50,0.213
473.00,0.207
473.50,0.199
474.00,0.193
474.50,0.189
475.00,0.181
475.50,0.178
476.00,0.168
476.50,0.164
477.00,0.159
477.50,0.151
478.00,0.145
478.50,0.139
479.00,0.135
479.50,0.131
480.00,0.129
480.50,0.123
481.00,0.117
481.50,0.109
482.00,0.104
482.50,0.103
483.00,0.095
483.50,0.093
484.00,0.090
484.50,0.084
485.00,0.079
485.50,0.078
486.00,0.076
486.50,0.076
487.00,0.069
487.50,0.064
488.00,0.058
488.50,0.057
489.00,0.056
489.50,0.049
490.00,0.050
490.50,0.045
491.00,0.045
491.50,0.044
492.00,0.040
492.50,0.036
493.00,0.031
493.50,0.034
494.00,0.029
494.50,0.029
495.00,0.028
495.50,0.024
496.00,0.024
496.50,0.023
497.00,0.019
497.50,0.018
498.00,0.022
498.50,0.019
499.00,0.015
499.50,0.021
500.00,0.021
500.50,0.017
501.00,0.016
501.50,0.013
502.00,0.016
502.50,0.013
503.00,0.012
503.50,0.012
504.00,0.013
504.50,0.013
505.00,0.010
505.50,0.008
506.00,0.008
506.50,0.012
507.00,0.009
507.50,0.009
508.00,0.011
508.50,0.009
509.00,0.005
509.50,0.006
510.00,0.006
510.50,0.003
511.00,0.005
511.50,0.007
512.00,0.006
512.50,0.005
513.00,0.010
513.50,0.010
514.00,0.011
514.50,0.010
515.00,0.008
515.50,0.008
516.00,0.007
516.50,0.008
517.00,0.006
517.50,0.006
518.00,0.005
518.50,0.010
519.00,0.008
519.50,0.007
520.00,0.008
520.50,0.005
521.00,0.004
521.50,0.005
522.00,0.004
522.50,0.002
523.00,0.007
523.50,0.005
524.00,0.009
524.50,0.005
525.00,0.008
525.50,0.010
526.00,0.004
526.50,0.006
527.00,0.001
527.50,0.004
528.00,0.003
528.50,0.006
529.00,0.004
529.50,0.004
530.00,0.006
530.50,0.007
531.00,0.003
531.50,0.002
532.00,0.001
532.50,0.000
533.00,0.004
533.50,0.003
534.00,0.006
534.50,0.007
535.00,0.005
535.50,0.004
536.00,0.004
536.50,0.004
537.00,0.007
537.50,0.005
538.00,0.005
538.50,0.004
539.00,0.004
539.50,0.006
540.00,0.007
540.50,0.007
541.00,0.004
541.50,0.006
542.00,0.007
542.50,0.007
543.00,0.005
543.50,0.004
544.00,0.006
544.50,0.002
545.00,0.000
545.50,0.001
546.00,0.008
546.50,0.004
547.00,0.005
547.50,0.007
548.00,0.004
548.50,0.005
549.00,0.007
549.50,0.003
550.00,0.005
550.50,0.005
551.00,0.005
551.50,0.005
552.00,0.005
552.50,0.002
553.00,0.003
553.50,0.004
554.00,0.004
554.50,0.004
555.00,0.003
555.50,0.008
556.00,0.003
556.50,0.002
557.00,-0.002
557.50,0.000
558.00,0.005
558.50,0.006
559.00,0.004
559.50,0.006
560.00,0.009
560.50,0.007
561.00,0.006
561.50,0.005
562.00,0.006
562.50,0.005
563.00,0.002
563.50,0.002
564.00,0.004
564.50,0.004
565.00,0.006
565.50,0.008
566.00,0.002
566.50,0.005
567.00,0.002
567.50,0.004
568.00,0.006
568.50,0.007
569.00,0.006
569.50,0.005
570.00,0.005
570.50,0.007
571.00,0.011
571.50,0.009
572.00,0.008
572.50,0.007
573.00,0.004
573.50,0.007
574.00,0.005
574.50,0.005
575.00,0.004
575.50,0.001
576.00,0.003
576.50,0.004
577.00,0.001
577.50,0.002
578.00,0.005
578.50,0.003
579.00,0.003
579.50,0.005
580.00,0.002
580.50,0.001
581.00,0.005
581.50,0.004
582.00,0.008
582.50,0.004
583.00,0.004
583.50,0.005
584.00,0.006
584.50,0.006
585.00,0.006
585.50,0.006
586.00,0.000
586.50,0.006
587.00,0.008
587.50,0.008
588.00,0.004
588.50,-0.001
589.00,0.001
589.50,0.005
590.00,0.005
590.50,0.006
591.00,0.008
591.50,0.004
592.00,0.004
592.50,0.004
593.00,0.003
593.50,0.001
594.00,0.002
594.50,0.005
595.00,0.007
595.50,0.006
596.00,0.004
596.50,0.004
597.00,0.004
597.50,0.004
598.00,0.005
598.50,0.005
599.00,0.003
599.50,0.004
600.00,0.007
600.50,0.005
601.00,0.005
601.50,0.002
602.00,0.002
602.50,0.006
603.00,0.006
603.50,0.003
604.00,0.004
604.50,0.005
605.00,0.007
605.50,0.004
606.00,0.002
606.50,0.005
607.00,0.006
607.50,0.003
608.00,0.003
608.50,0.005
609.00,0.006
609.50,0.004
610.00,0.002
610.50,0.002
611.00,0.004
611.50,0.006
612.00,0.007
612.50,0.011
613.00,0.007
613.50,0.005
614.00,0.007
614.50,0.002
615.00,0.004
615.50,0.005
616.00,0.003
616.50,0.004
617.00,0.001
617.50,-0.000
618.00,-0.003
618.50,0.001
619.00,0.007
619.50,0.005
620.00,0.010
620.50,0.009
621.00,0.006
621.50,0.004
622.00,0.005
622.50,0.002
623.00,0.003
623.50,0.003
624.00,0.002
624.50,-0.000
625.00,0.000
625.50,0.006
626.00,0.007
626.50,0.007
627.00,0.003
627.50,0.006
628.00,0.007
628.50,0.010
629.00,0.009
629.50,0.007
630.00,0.006
630.50,0.005
631.00,0.005
631.50,0.005
632.00,0.004
632.50,0.006
633.00,0.002
633.50,0.003
634.00,0.003
634.50,0.006
635.00,0.005
635.50,0.005
636.00,0.003
636.50,0.000
637.00,-0.003
637.50,0.001
638.00,0.000
638.50,0.000
639.00,-0.001
639.50,0.001
640.00,0.007
640.50,0.006
641.00,0.003
641.50,0.004
642.00,-0.001
642.50,0.006
643.00,-0.000
643.50,-0.000
644.00,0.004
644.50,0.007
645.00,0.008
645.50,0.003
646.00,0.007
646.50,0.003
647.00,0.007
647.50,0.005
648.00,0.004
648.50,0.000
649.00,0.004
649.50,0.002
650.00,0.000
650.50,0.001
651.00,0.010
651.50,-0.001
652.00,0.001
652.50,-0.000
653.00,-0.001
653.50,0.004
654.00,-0.001
654.50,0.004
655.00,0.005
655.50,0.007
656.00,0.005
656.50,0.004
657.00,0.005
657.50,0.003
658.00,0.005
658.50,0.009
659.00,0.010
659.50,0.009
660.00,0.011
660.50,0.009
661.00,0.007
661.50,-0.000
662.00,-0.000
662.50,-0.000
663.00,0.001
663.50,0.003
664.00,0.004
664.50,0.005
665.00,-0.002
665.50,0.003
666.00,0.004
666.50,0.004
667.00,0.013
667.50,0.004
668.00,0.009
668.50,0.004
669.00,0.004
669.50,0.003
670.00,0.001
670.50,0.002
671.00,0.008
671.50,0.008
672.00,0.005
672.50,0.006
673.00,0.004
673.50,0.006
674.00,0.009
674.50,0.008
675.00,0.008
675.50,0.009
676.00,0.004
676.50,-0.004
677.00,0.005
677.50,0.001
678.00,0.003
678.50,-0.000
679.00,0.007
679.50,0.003
680.00,0.004
680.50,0.004
681.00,0.005
681.50,0.002
682.00,-0.000
682.50,-0.002
683.00,0.002
683.50,0.001
684.00,0.001
684.50,0.004
685.00,0.003
685.50,0.003
686.00,0.001
686.50,0.000
687.00,0.003
687.50,-0.000
688.00,0.004
688.50,-0.003
689.00,0.006
689.50,0.001
690.00,-0.001
690.50,0.001
691.00,-0.000
691.50,0.008
692.00,0.005
692.50,0.012
693.00,0.009
693.50,0.004
694.00,0.002
694.50,0.002
695.00,0.001
695.50,-0.000
696.00,0.002
696.50,-0.002
697.00,-0.000
697.50,0.004
698.00,0.002
698.50,0.011
699.00,0.006
699.50,0.007
700.00,0.007
700.50,0.013
701.00,0.012
701.50,0.001
702.00,0.003
702.50,0.003
703.00,0.001
703.50,0.003
704.00,-0.006
704.50,-0.000
705.00,0.008
705.50,0.003
706.00,0.006
706.50,0.013
707.00,0.006
707.50,0.011
708.00,0.013
708.50,0.010
709.00,0.010
709.50,0.007
710.00,0.008
710.50,0.005
711.00,0.004
711.50,-0.002
712.00,0.001
712.50,0.001
713.00,0.006
713.50,0.008
714.00,0.005
714.50,0.006
715.00,0.004
715.50,0.002
716.00,0.009
716.50,0.005
717.00,0.006
717.50,0.008
718.00,0.013
718.50,0.012
719.00,0.010
719.50,0.008
720.00,0.004
720.50,0.006
721.00,0.006
721.50,0.007
722.00,-0.002
722.50,0.003
723.00,0.008
723.50,0.007
724.00,0.002
724.50,0.005
725.00,0.003
725.50,0.000
726.00,0.005
726.50,0.003
727.00,0.003
727.50,0.000
728.00,0.005
728.50,0.005
729.00,0.002
729.50,0.005
730.00,-0.001
730.50,0.002
731.00,-0.003
731.50,-0.001
732.00,-0.006
732.50,0.012
733.00,0.005
733.50,0.005
734.00,0.001
734.50,-0.002
735.00,0.002
735.50,0.005
736.00,-0.000
736.50,-0.002
737.00,0.001
737.50,0.005
738.00,-0.000
738.50,0.001
739.00,0.011
739.50,0.005
740.00,0.002
740.50,0.000
741.00,-0.001
741.50,0.003
742.00,0.004
742.50,0.014
743.00,0.009
743.50,0.005
744.00,-0.000
744.50,0.007
745.00,0.003
745.50,0.012
746.00,0.004
746.50,0.005
747.00,0.005
747.50,0.004
748.00,-0.004
748.50,0.004
749.00,0.005
749.50,0.003
750.00,-0.002
750.50,-0.004
751.00,-0.003
751.50,0.006
752.00,0.003
752.50,0.005
753.00,-0.004
753.50,0.003
754.00,0.002
754.50,0.003
755.00,0.005
755.50,0.001
756.00,0.004
756.50,-0.003
757.00,0.005
757.50,0.004
758.00,-0.001
758.50,0.000
759.00,0.003
759.50,0.005
760.00,-0.002
760.50,-0.011
761.00,0.003
761.50,-0.000
762.00,0.002
762.50,-0.001
763.00,-0.004
763.50,-0.002
764.00,-0.002
764.50,0.013
765.00,0.003
765.50,0.007
766.00,0.007
766.50,0.006
767.00,0.011
767.50,0.012
768.00,0.010
768.50,0.012
769.00,0.002
769.50,-0.003
770.00,0.004
770.50,0.006
771.00,0.010
771.50,0.012
772.00,0.008
772.50,0.011
773.00,0.003
773.50,-0.003
774.00,0.007
774.50,0.002
775.00,0.009
775.50,0.001
776.00,0.006
776.50,0.003
777.00,-0.001
777.50,0.005
778.00,0.013
778.50,0.004
779.00,0.011
779.50,0.014
780.00,0.004
780.50,0.004
781.00,0.013
781.50,0.010
782.00,0.011
782.50,-0.002
783.00,0.009
783.50,0.003
784.00,0.001
784.50,0.004
785.00,0.000
785.50,0.005
786.00,-0.001
786.50,0.013
787.00,0.000
787.50,-0.000
788.00,0.002
788.50,0.002
789.00,0.005
789.50,0.002
790.00,0.007
790.50,0.014
791.00,0.003
791.50,0.002
792.00,0.004
792.50,0.005
793.00,0.008
793.50,0.001
794.00,0.003
794.50,0.008
795.00,0.012
795.50,0.005
796.00,-0.000
796.50,-0.009
797.00,-0.006
797.50,-0.005
798.00,-0.000
798.50,-0.003
799.00,-0.007
799.50,0.002
800.00,-0.008
