"aspirin-drop-onesixth-onefifth - RawData - C:\Documents and Settings\uvvis\Desktop\w\File_260419_001632.spc"
"Wavelength nm.","Abs."
200.00,0.821
200.50,0.724
201.00,0.739
201.50,0.697
202.00,0.642
202.50,0.688
203.00,0.662
203.50,0.611
204.00,0.635
204.50,0.582
205.00,0.570
205.50,0.534
206.00,0.515
206.50,0.486
207.00,0.434
207.50,0.421
208.00,0.377
208.50,0.375
209.00,0.355
209.50,0.340
210.00,0.305
210.50,0.293
211.00,0.270
211.50,0.238
212.00,0.232
212.50,0.214
213.00,0.196
213.50,0.197
214.00,0.185
214.50,0.203
215.00,0.176
215.50,0.162
216.00,0.169
216.50,0.166
217.00,0.153
217.50,0.146
218.00,0.157
218.50,0.159
219.00,0.152
219.50,0.162
220.00,0.143
220.50,0.144
221.00,0.152
221.50,0.147
222.00,0.160
222.50,0.170
223.00,0.145
223.50,0.160
224.00,0.157
224.50,0.149
225.00,0.145
225.50,0.141
226.00,0.147
226.50,0.159
227.00,0.171
227.50,0.153
228.00,0.151
228.50,0.154
229.00,0.141
229.50,0.144
230.00,0.151
230.50,0.136
231.00,0.143
231.50,0.145
232.00,0.139
232.50,0.151
233.00,0.128
233.50,0.117
234.00,0.119
234.50,0.114
235.00,0.109
235.50,0.124
236.00,0.104
236.50,0.104
237.00,0.098
237.50,0.106
238.00,0.103
238.50,0.100
239.00,0.086
239.50,0.080
240.00,0.070
240.50,0.060
241.00,0.066
241.50,0.056
242.00,0.059
242.50,0.053
243.00,0.048
243.50,0.052
244.00,0.040
244.50,0.045
245.00,0.031
245.50,0.040
246.00,0.033
246.50,0.023
247.00,0.022
247.50,0.035
248.00,0.026
248.50,0.036
249.00,0.039
249.50,0.028
250.00,0.015
250.50,0.020
251.00,0.027
251.50,0.020
252.00,0.022
252.50,0.025
253.00,0.023
253.50,0.019
254.00,0.017
254.50,0.016
255.00,0.014
255.50,0.018
256.00,0.007
256.50,0.018
257.00,0.011
257.50,0.011
258.00,0.013
258.50,0.007
259.00,0.022
259.50,0.006
260.00,0.011
260.50,0.017
261.00,0.018
261.50,0.028
262.00,0.015
262.50,0.010
263.00,0.019
263.50,0.025
264.00,0.017
264.50,0.021
265.00,0.019
265.50,0.016
266.00,0.013
266.50,0.019
267.00,0.026
267.50,0.026
268.00,0.012
268.50,0.007
269.00,0.006
269.50,0.017
270.00,0.016
270.50,0.013
271.00,0.006
271.50,0.015
272.00,0.007
272.50,0.019
273.00,0.024
273.50,0.018
274.00,0.025
274.50,0.027
275.00,0.029
275.50,0.019
276.00,0.021
276.50,0.024
277.00,0.024
277.50,0.038
278.00,0.021
278.50,0.029
279.00,0.014
279.50,0.021
280.00,0.034
280.50,0.034
281.00,0.028
281.50,0.034
282.00,0.033
282.50,0.032
283.00,0.036
283.50,0.041
284.00,0.031
284.50,0.028
285.00,0.040
285.50,0.026
286.00,0.054
286.50,0.052
287.00,0.057
287.50,0.038
288.00,0.051
288.50,0.040
289.00,0.035
289.50,0.049
290.00,0.050
290.50,0.053
291.00,0.047
291.50,0.050
292.00,0.052
292.50,0.056
293.00,0.049
293.50,0.048
294.00,0.058
294.50,0.058
295.00,0.051
295.50,0.050
296.00,0.029
296.50,0.049
297.00,0.050
297.50,0.049
298.00,0.041
298.50,0.050
299.00,0.045
299.50,0.045
300.00,0.037
300.50,0.045
301.00,0.048
301.50,0.047
302.00,0.035
302.50,0.032
303.00,0.046
303.50,0.041
304.00,0.034
304.50,0.022
305.00,0.030
305.50,0.035
306.00,0.034
306.50,0.035
307.00,0.060
307.50,0.042
308.00,0.033
308.50,0.032
309.00,0.043
309.50,0.036
310.00,0.043
310.50,0.039
311.00,0.026
311.50,0.034
312.00,0.023
312.50,0.023
313.00,0.020
313.50,0.019
314.00,0.022
314.50,0.012
315.00,0.016
315.50,0.014
316.00,0.007
316.50,0.004
317.00,-0.000
317.50,0.002
318.00,0.006
318.50,-0.001
319.00,0.003
319.50,0.003
320.00,0.006
320.50,0.015
321.00,0.001
321.50,0.006
322.00,0.010
322.50,0.018
323.00,-0.010
323.50,0.002
324.00,0.018
324.50,0.010
325.00,0.022
325.50,0.016
326.00,-0.000
326.50,0.007
327.00,0.022
327.50,0.030
328.00,0.029
328.50,0.017
329.00,0.013
329.50,0.014
330.00,0.013
330.50,0.018
331.00,0.013
331.50,0.005
332.00,0.015
332.50,0.015
333.00,0.030
333.50,0.021
334.00,0.009
334.50,0.007
335.00,-0.001
335.50,0.000
336.00,-0.007
336.50,0.002
337.00,-0.010
337.50,-0.000
338.00,0.005
338.50,-0.004
339.00,0.000
339.50,-0.002
340.00,0.011
340.50,-0.003
341.00,-0.009
341.50,-0.003
342.00,0.004
342.50,0.004
343.00,0.014
343.50,-0.004
344.00,0.013
344.50,0.014
345.00,0.008
345.50,0.012
346.00,0.008
346.50,0.007
347.00,0.005
347.50,0.001
348.00,-0.007
348.50,-0.006
349.00,-0.006
349.50,-0.001
350.00,0.001
350.50,0.003
351.00,-0.004
351.50,-0.005
352.00,-0.001
352.50,0.007
353.00,0.005
353.50,0.008
354.00,0.012
354.50,0.001
355.00,0.006
355.50,0.016
356.00,0.008
356.50,-0.007
357.00,-0.001
357.50,0.002
358.00,-0.009
358.50,-0.002
359.00,-0.008
359.50,0.003
360.00,-0.004
360.50,-0.002
361.00,0.012
361.50,-0.005
362.00,-0.006
362.50,0.004
363.00,0.009
363.50,-0.010
364.00,0.001
364.50,-0.008
365.00,0.007
365.50,0.000
366.00,0.009
366.50,0.014
367.00,0.005
367.50,-0.000
368.00,0.004
368.50,0.001
369.00,0.005
369.50,0.007
370.00,0.004
370.50,0.007
371.00,0.003
371.50,0.004
372.00,0.000
372.50,0.008
373.00,0.006
373.50,0.005
374.00,0.008
374.50,0.009
375.00,0.005
375.50,0.007
376.00,-0.003
376.50,-0.006
377.00,-0.005
377.50,0.004
378.00,0.003
378.50,0.009
379.00,0.002
379.50,0.007
380.00,0.009
380.50,0.000
381.00,-0.004
381.50,0.001
382.00,0.007
382.50,0.006
383.00,0.009
383.50,0.003
384.00,0.009
384.50,0.006
385.00,0.008
385.50,0.010
386.00,0.004
386.50,0.007
387.00,0.002
387.50,0.008
388.00,0.005
388.50,-0.000
389.00,0.005
389.50,0.006
390.00,0.005
390.50,0.000
391.00,0.006
391.50,0.004
392.00,0.004
392.50,0.001
393.00,0.006
393.50,0.015
394.00,0.010
394.50,0.006
395.00,0.007
395.50,-0.002
396.00,-0.003
396.50,0.002
397.00,0.007
397.50,0.010
398.00,0.002
398.50,0.006
399.00,0.004
399.50,-0.000
400.00,0.004
400.50,0.004
401.00,0.006
401.50,0.009
402.00,0.009
402.50,0.008
403.00,0.008
403.50,0.000
404.00,0.003
404.50,0.003
405.00,-0.005
405.50,0.003
406.00,0.002
406.50,0.005
407.00,0.007
407.50,0.002
408.00,0.004
408.50,0.007
409.00,0.006
409.50,-0.001
410.00,0.007
410.50,0.010
411.00,0.012
411.50,0.009
412.00,0.003
412.50,-0.002
413.00,0.001
413.50,0.003
414.00,-0.002
414.50,0.004
415.00,0.002
415.50,0.004
416.00,0.006
416.50,0.011
417.00,0.005
417.50,-0.000
418.00,0.007
418.50,0.002
419.00,0.007
419.50,0.005
420.00,0.001
420.50,0.011
421.00,0.008
421.50,0.008
422.00,0.004
422.50,0.005
423.00,0.003
423.50,0.000
424.00,-0.001
424.50,-0.002
425.00,0.006
425.50,0.002
426.00,0.003
426.50,0.006
427.00,0.000
427.50,0.004
428.00,0.003
428.50,0.002
429.00,0.003
429.50,0.001
430.00,-0.002
430.50,0.001
431.00,0.001
431.50,-0.001
432.00,0.005
432.50,0.002
433.00,0.008
433.50,0.012
434.00,0.005
434.50,-0.000
435.00,0.004
435.50,-0.000
436.00,-0.001
436.50,-0.001
437.00,-0.000
437.50,0.003
438.00,0.002
438.50,0.006
439.00,0.007
439.50,0.002
440.00,0.006
440.50,0.003
441.00,0.004
441.50,0.006
442.00,0.008
442.50,0.005
443.00,0.004
443.50,0.008
444.00,0.004
444.50,0.005
445.00,0.005
445.50,0.001
446.00,0.006
446.50,0.009
447.00,0.002
447.50,0.004
448.00,0.006
448.50,0.005
449.00,0.005
449.50,0.004
450.00,0.007
450.50,0.007
451.00,0.005
451.50,0.006
452.00,-0.000
452.50,0.007
453.00,0.005
453.50,0.007
454.00,0.001
454.50,0.001
455.00,0.003
455.50,0.011
456.00,0.009
456.50,0.008
457.00,0.008
457.50,0.007
458.00,0.008
458.50,0.006
459.00,0.005
459.50,0.003
460.00,-0.001
460.50,0.004
461.00,0.006
461.50,0.002
462.00,0.006
462.50,0.003
463.00,0.000
463.50,0.003
464.00,0.006
464.50,0.004
465.00,0.003
465.50,0.005
466.00,0.003
466.50,0.004
467.00,0.005
467.50,0.007
468.00,0.004
468.50,0.003
469.00,0.005
469.50,0.002
470.00,0.006
470.50,0.004
471.00,0.004
471.50,0.000
472.00,0.001
472.50,0.005
473.00,0.005
473.50,0.006
474.00,0.002
474.50,0.006
475.00,0.007
475.50,0.003
476.00,0.005
476.50,0.005
477.00,0.008
477.50,0.002
478.00,0.001
478.50,0.003
479.00,0.006
479.50,0.006
480.00,0.006
480.50,0.007
481.00,0.007
481.50,0.006
482.00,0.005
482.50,0.006
483.00,0.007
483.50,0.006
484.00,0.004
484.50,0.004
485.00,0.007
485.50,0.006
486.00,0.007
486.50,0.003
487.00,0.005
487.50,0.004
488.00,0.002
488.50,0.010
489.00,0.004
489.50,0.008
490.00,0.009
490.50,0.010
491.00,0.008
491.50,0.011
492.00,0.008
492.50,0.010
493.00,0.009
493.50,0.004
494.00,0.007
494.50,0.006
495.00,0.007
495.50,0.002
496.00,0.006
496.50,0.004
497.00,0.003
497.50,0.002
498.00,0.004
498.50,0.002
499.00,0.004
499.50,0.003
500.00,0.004
500.50,0.004
501.00,0.007
501.50,0.005
502.00,0.005
502.50,0.003
503.00,0.007
503.50,0.008
504.00,0.009
504.50,0.007
505.00,0.006
505.50,0.006
506.00,0.007
506.50,0.003
507.00,0.002
507.50,0.004
508.00,0.001
508.50,0.005
509.00,0.005
509.50,0.009
510.00,0.004
510.50,0.004
511.00,0.005
511.50,0.004
512.00,0.006
512.50,0.005
513.00,0.007
513.50,0.006
514.00,0.003
514.50,0.005
515.00,0.003
515.50,0.006
516.00,0.004
516.50,0.005
517.00,0.004
517.50,0.009
518.00,0.008
518.50,0.008
519.00,0.009
519.50,0.007
520.00,0.005
520.50,0.003
521.00,0.005
521.50,0.005
522.00,0.007
522.50,0.004
523.00,0.007
523.50,0.004
524.00,0.007
524.50,0.007
525.00,0.004
525.50,0.007
526.00,0.007
526.50,0.004
527.00,0.004
527.50,0.004
528.00,0.008
528.50,0.007
529.00,0.003
529.50,0.001
530.00,0.000
530.50,0.005
531.00,0.004
531.50,0.007
532.00,0.005
532.50,0.001
533.00,0.004
533.50,0.005
534.00,0.004
534.50,0.008
535.00,0.005
535.50,0.006
536.00,0.002
536.50,0.006
537.00,0.006
537.50,0.007
538.00,0.009
538.50,0.005
539.00,0.006
539.50,0.004
540.00,0.007
540.50,0.005
541.00,0.004
541.50,0.003
542.00,0.003
542.50,-0.001
543.00,0.003
543.50,0.006
544.00,0.006
544.50,0.006
545.00,0.007
545.50,0.008
546.00,0.008
546.50,0.008
547.00,0.004
547.50,0.004
548.00,0.008
548.50,0.008
549.00,0.007
549.50,0.007
550.00,0.007
550.50,0.005
551.00,0.006
551.50,0.007
552.00,0.006
552.50,0.004
553.00,0.007
553.50,0.007
554.00,0.005
554.50,0.005
555.00,0.005
555.50,0.003
556.00,0.003
556.50,0.004
557.00,0.004
557.50,0.005
558.00,0.005
558.50,0.005
559.00,0.003
559.50,0.006
560.00,0.007
560.50,0.010
561.00,0.006
561.50,0.008
562.00,0.004
562.50,0.004
563.00,0.004
563.50,0.003
564.00,0.006
564.50,0.005
565.00,0.005
565.50,0.003
566.00,0.007
566.50,0.006
567.00,0.003
567.50,0.004
568.00,0.005
568.50,0.007
569.00,0.005
569.50,0.004
570.00,0.004
570.50,0.000
571.00,0.003
571.50,0.005
572.00,0.008
572.50,0.007
573.00,0.004
573.50,0.005
574.00,0.005
574.50,0.005
575.00,0.005
575.50,0.007
576.00,0.008
576.50,0.004
577.00,0.003
577.50,0.005
578.00,0.002
578.50,0.003
579.00,0.001
579.50,0.004
580.00,0.007
580.50,0.003
581.00,0.002
581.50,0.006
582.00,0.010
582.50,0.006
583.00,0.002
583.50,0.005
584.00,0.003
584.50,0.002
585.00,0.000
585.50,0.003
586.00,0.003
586.50,0.004
587.00,0.003
587.50,0.004
588.00,0.003
588.50,0.004
589.00,0.003
589.50,0.005
590.00,0.007
590.50,0.008
591.00,0.009
591.50,0.004
592.00,0.003
592.50,0.006
593.00,0.004
593.50,0.003
594.00,0.005
594.50,0.005
595.00,0.008
595.50,0.011
596.00,0.011
596.50,0.007
597.00,0.003
597.50,0.008
598.00,0.008
598.50,0.004
599.00,0.004
599.50,0.002
600.00,0.004
600.50,0.005
601.00,0.003
601.50,0.004
602.00,0.004
602.50,0.003
603.00,0.004
603.50,0.006
604.00,0.005
604.50,0.005
605.00,0.007
605.50,0.003
606.00,0.006
606.50,0.006
607.00,0.006
607.50,0.006
608.00,0.001
608.50,0.000
609.00,0.005
609.50,0.003
610.00,0.001
610.50,0.004
611.00,0.006
611.50,0.005
612.00,0.006
612.50,0.005
613.00,0.009
613.50,0.006
614.00,0.007
614.50,0.005
615.00,0.002
615.50,0.004
616.00,0.009
616.50,0.006
617.00,0.007
617.50,0.005
618.00,0.009
618.50,0.009
619.00,0.009
619.50,0.009
620.00,0.007
620.50,0.005
621.00,0.006
621.50,0.005
622.00,0.004
622.50,0.003
623.00,0.004
623.50,-0.000
624.00,0.001
624.50,0.002
625.00,0.006
625.50,0.007
626.00,0.007
626.50,0.005
627.00,0.008
627.50,0.008
628.00,0.008
628.50,0.011
629.00,0.013
629.50,0.010
630.00,0.010
630.50,0.009
631.00,0.001
631.50,0.003
632.00,0.006
632.50,0.007
633.00,0.004
633.50,0.002
634.00,0.005
634.50,0.002
635.00,0.005
635.50,0.005
636.00,0.007
636.50,0.008
637.00,0.006
637.50,0.006
638.00,0.002
638.50,0.001
639.00,0.003
639.50,0.004
640.00,0.004
640.50,0.006
641.00,0.004
641.50,0.004
642.00,0.007
642.50,0.005
643.00,0.006
643.50,0.002
644.00,0.006
644.50,0.005
645.00,0.003
645.50,0.005
646.00,0.005
646.50,0.004
647.00,0.007
647.50,0.002
648.00,0.001
648.50,0.006
649.00,0.006
649.50,0.012
650.00,0.008
650.50,0.006
651.00,0.003
651.50,0.006
652.00,0.007
652.50,0.005
653.00,0.011
653.50,0.007
654.00,0.005
654.50,0.007
655.00,0.003
655.50,0.010
656.00,0.009
656.50,0.009
657.00,0.005
657.50,0.004
658.00,0.009
658.50,0.010
659.00,0.010
659.50,0.006
660.00,0.003
660.50,0.001
661.00,0.004
661.50,0.006
662.00,0.006
662.50,0.008
663.00,0.008
663.50,0.003
664.00,0.012
664.50,0.005
665.00,0.003
665.50,0.003
666.00,0.004
666.50,0.010
667.00,0.005
667.50,0.005
668.00,0.003
668.50,0.000
669.00,0.007
669.50,0.009
670.00,0.009
670.50,0.006
671.00,0.002
671.50,0.004
672.00,0.001
672.50,0.003
673.00,0.008
673.50,0.007
674.00,0.005
674.50,0.007
675.00,0.007
675.50,0.005
676.00,0.006
676.50,0.004
677.00,0.000
677.50,0.004
678.00,0.005
678.50,0.000
679.00,0.007
679.50,0.009
680.00,0.010
680.50,0.007
681.00,0.007
681.50,0.004
682.00,0.005
682.50,0.001
683.00,0.000
683.50,0.006
684.00,0.001
684.50,0.008
685.00,0.005
685.50,0.001
686.00,0.002
686.50,0.003
687.00,0.009
687.50,0.001
688.00,0.010
688.50,0.011
689.00,0.012
689.50,0.014
690.00,0.012
690.50,0.007
691.00,0.007
691.50,0.006
692.00,0.008
692.50,0.009
693.00,0.007
693.50,0.005
694.00,0.002
694.50,0.008
695.00,0.003
695.50,0.001
696.00,0.002
696.50,0.008
697.00,0.010
697.50,0.008
698.00,0.010
698.50,0.006
699.00,0.006
699.50,0.007
700.00,0.006
700.50,0.002
701.00,0.004
701.50,0.007
702.00,0.009
702.50,0.011
703.00,0.008
703.50,0.006
704.00,0.008
704.50,0.005
705.00,0.008
705.50,0.005
706.00,0.007
706.50,0.002
707.00,0.006
707.50,0.006
708.00,0.008
708.50,0.009
709.00,0.005
709.50,0.008
710.00,0.009
710.50,0.003
711.00,0.002
711.50,0.008
712.00,0.012
712.50,0.008
713.00,0.005
713.50,-0.000
714.00,0.002
714.50,0.004
715.00,0.006
715.50,0.006
716.00,0.005
716.50,-0.004
717.00,0.007
717.50,0.009
718.00,0.013
718.50,0.013
719.00,0.010
719.50,0.013
720.00,0.014
720.50,0.010
721.00,0.003
721.50,0.006
722.00,0.011
722.50,0.006
723.00,0.005
723.50,0.003
724.00,0.005
724.50,0.008
725.00,0.007
725.50,0.006
726.00,0.014
726.50,0.000
727.00,0.010
727.50,0.001
728.00,0.004
728.50,0.008
729.00,0.009
729.50,0.012
730.00,0.010
730.50,0.007
731.00,0.010
731.50,0.008
732.00,0.004
732.50,0.003
733.00,0.001
733.50,0.000
734.00,0.003
734.50,0.003
735.00,0.004
735.50,0.003
736.00,0.001
736.50,0.006
737.00,0.006
737.50,0.009
738.00,0.004
738.50,0.007
739.00,0.005
739.50,0.003
740.00,0.008
740.50,0.011
741.00,0.009
741.50,-0.003
742.00,0.002
742.50,0.006
743.00,-0.001
743.50,0.010
744.00,0.011
744.50,0.012
745.00,0.010
745.50,0.006
746.00,0.007
746.50,0.004
747.00,0.009
747.50,0.006
748.00,0.017
748.50,0.014
749.00,0.002
749.50,-0.001
750.00,0.006
750.50,0.003
751.00,0.005
751.50,0.009
752.00,0.000
752.50,0.009
753.00,0.012
753.50,0.017
754.00,0.008
754.50,0.012
755.00,0.004
755.50,0.001
756.00,-0.001
756.50,0.009
757.00,0.005
757.50,0.007
758.00,0.008
758.50,0.010
759.00,0.009
759.50,0.011
760.00,0.003
760.50,0.004
761.00,-0.002
761.50,0.006
762.00,0.005
762.50,0.004
763.00,0.012
763.50,0.010
764.00,0.005
764.50,0.003
765.00,0.007
765.50,0.003
766.00,0.007
766.50,0.011
767.00,0.001
767.50,0.009
768.00,0.007
768.50,0.011
769.00,0.008
769.50,0.005
770.00,0.002
770.50,0.001
771.00,0.006
771.50,-0.000
772.00,0.004
772.50,0.007
773.00,0.003
773.50,0.013
774.00,0.012
774.50,0.007
775.00,0.009
775.50,0.008
776.00,0.002
776.50,0.011
777.00,0.012
777.50,0.003
778.00,0.004
778.50,0.004
779.00,-0.002
779.50,0.007
780.00,0.006
780.50,0.006
781.00,0.006
781.50,0.009
782.00,0.003
782.50,0.002
783.00,-0.006
783.50,0.000
784.00,-0.003
784.50,0.011
785.00,0.006
785.50,0.012
786.00,0.013
786.50,-0.005
787.00,0.008
787.50,0.002
788.00,0.017
788.50,0.013
789.00,-0.002
789.50,0.005
790.00,0.001
790.50,0.010
791.00,0.012
791.50,0.013
792.00,0.007
792.50,-0.001
793.00,0.001
793.50,-0.003
794.00,0.004
794.50,0.011
795.00,0.005
795.50,0.005
796.00,0.009
796.50,-0.001
797.00,-0.002
797.50,0.009
798.00,0.006
798.50,0.011
799.00,0.005
799.50,0.008
800.00,-0.002
