"pink-drop-onesixth - RawData - C:\Documents and Settings\uvvis\Desktop\w\File_260418_234937.spc"
"Wavelength nm.","Abs."
200.00,1.058
200.50,1.078
201.00,0.960
201.50,0.922
202.00,0.924
202.50,0.776
203.00,0.823
203.50,0.824
204.00,0.759
204.50,0.840
205.00,0.791
205.50,0.835
206.00,0.780
206.50,0.758
207.00,0.747
207.50,0.750
208.00,0.763
208.50,0.750
209.00,0.743
209.50,0.734
210.00,0.740
210.50,0.783
211.00,0.752
211.50,0.737
212.00,0.723
212.50,0.697
213.00,0.710
213.50,0.706
214.00,0.702
214.50,0.686
215.00,0.641
215.50,0.639
216.00,0.628
216.50,0.617
217.00,0.571
217.50,0.625
218.00,0.559
218.50,0.519
219.00,0.481
219.50,0.512
220.00,0.483
220.50,0.432
221.00,0.439
221.50,0.425
222.00,0.404
222.50,0.387
223.00,0.383
223.50,0.352
224.00,0.353
224.50,0.335
225.00,0.303
225.50,0.293
226.00,0.305
226.50,0.284
227.00,0.304
227.50,0.302
228.00,0.275
228.50,0.291
229.00,0.275
229.50,0.269
230.00,0.275
230.50,0.248
231.00,0.249
231.50,0.238
232.00,0.256
232.50,0.246
233.00,0.240
233.50,0.240
234.00,0.233
234.50,0.230
235.00,0.234
235.50,0.220
236.00,0.220
236.50,0.226
237.00,0.223
237.50,0.226
238.00,0.224
238.50,0.221
239.00,0.208
239.50,0.211
240.00,0.206
240.50,0.193
241.00,0.197
241.50,0.189
242.00,0.200
242.50,0.188
243.00,0.183
243.50,0.182
244.00,0.199
244.50,0.174
245.00,0.193
245.50,0.181
246.00,0.187
246.50,0.184
247.00,0.179
247.50,0.181
248.00,0.185
248.50,0.173
249.00,0.179
249.50,0.175
250.00,0.175
250.50,0.174
251.00,0.178
251.50,0.172
252.00,0.167
252.50,0.169
253.00,0.182
253.50,0.175
254.00,0.156
254.50,0.157
255.00,0.156
255.50,0.148
256.00,0.154
256.50,0.154
257.00,0.161
257.50,0.161
258.00,0.159
258.50,0.156
259.00,0.149
259.50,0.142
260.00,0.146
260.50,0.157
261.00,0.144
261.50,0.151
262.00,0.152
262.50,0.146
263.00,0.146
263.50,0.147
264.00,0.141
264.50,0.142
265.00,0.139
265.50,0.136
266.00,0.130
266.50,0.143
267.00,0.134
267.50,0.127
268.00,0.128
268.50,0.121
269.00,0.123
269.50,0.116
270.00,0.116
270.50,0.113
271.00,0.118
271.50,0.122
272.00,0.116
272.50,0.114
273.00,0.123
273.50,0.120
274.00,0.119
274.50,0.107
275.00,0.114
275.50,0.116
276.00,0.103
276.50,0.112
277.00,0.104
277.50,0.113
278.00,0.111
278.50,0.106
279.00,0.110
279.50,0.097
280.00,0.090
280.50,0.112
281.00,0.107
281.50,0.111
282.00,0.109
282.50,0.100
283.00,0.097
283.50,0.108
284.00,0.105
284.50,0.094
285.00,0.099
285.50,0.094
286.00,0.113
286.50,0.111
287.00,0.105
287.50,0.086
288.00,0.081
288.50,0.083
289.00,0.099
289.50,0.089
290.00,0.103
290.50,0.092
291.00,0.096
291.50,0.097
292.00,0.096
292.50,0.079
293.00,0.089
293.50,0.085
294.00,0.098
294.50,0.085
295.00,0.086
295.50,0.071
296.00,0.073
296.50,0.085
297.00,0.077
297.50,0.083
298.00,0.091
298.50,0.080
299.00,0.072
299.50,0.070
300.00,0.079
300.50,0.072
301.00,0.068
301.50,0.069
302.00,0.082
302.50,0.075
303.00,0.084
303.50,0.071
304.00,0.074
304.50,0.071
305.00,0.077
305.50,0.066
306.00,0.085
306.50,0.078
307.00,0.074
307.50,0.083
308.00,0.077
308.50,0.078
309.00,0.071
309.50,0.095
310.00,0.097
310.50,0.074
311.00,0.060
311.50,0.048
312.00,0.066
312.50,0.060
313.00,0.090
313.50,0.076
314.00,0.059
314.50,0.062
315.00,0.061
315.50,0.055
316.00,0.068
316.50,0.054
317.00,0.043
317.50,0.056
318.00,0.064
318.50,0.059
319.00,0.053
319.50,0.059
320.00,0.071
320.50,0.061
321.00,0.056
321.50,0.070
322.00,0.062
322.50,0.068
323.00,0.076
323.50,0.069
324.00,0.069
324.50,0.080
325.00,0.063
325.50,0.052
326.00,0.053
326.50,0.065
327.00,0.067
327.50,0.066
328.00,0.063
328.50,0.079
329.00,0.062
329.50,0.061
330.00,0.066
330.50,0.064
331.00,0.067
331.50,0.064
332.00,0.078
332.50,0.083
333.00,0.058
333.50,0.059
334.00,0.052
334.50,0.049
335.00,0.064
335.50,0.034
336.00,0.043
336.50,0.042
337.00,0.034
337.50,0.047
338.00,0.065
338.50,0.039
339.00,0.049
339.50,0.043
340.00,0.034
340.50,0.043
341.00,0.044
341.50,0.036
342.00,0.047
342.50,0.043
343.00,0.039
343.50,0.050
344.00,0.045
344.50,0.051
345.00,0.050
345.50,0.055
346.00,0.052
346.50,0.052
347.00,0.057
347.50,0.061
348.00,0.057
348.50,0.050
349.00,0.046
349.50,0.050
350.00,0.046
350.50,0.046
351.00,0.039
351.50,0.050
352.00,0.050
352.50,0.048
353.00,0.056
353.50,0.046
354.00,0.047
354.50,0.055
355.00,0.053
355.50,0.056
356.00,0.056
356.50,0.042
357.00,0.052
357.50,0.036
358.00,0.041
358.50,0.034
359.00,0.039
359.50,0.047
360.00,0.040
360.50,0.045
361.00,0.045
361.50,0.045
362.00,0.048
362.50,0.048
363.00,0.042
363.50,0.032
364.00,0.031
364.50,0.039
365.00,0.047
365.50,0.048
366.00,0.045
366.50,0.038
367.00,0.038
367.50,0.044
368.00,0.034
368.50,0.038
369.00,0.034
369.50,0.047
370.00,0.041
370.50,0.046
371.00,0.047
371.50,0.041
372.00,0.038
372.50,0.035
373.00,0.034
373.50,0.044
374.00,0.036
374.50,0.038
375.00,0.038
375.50,0.034
376.00,0.025
376.50,0.032
377.00,0.039
377.50,0.031
378.00,0.033
378.50,0.032
379.00,0.033
379.50,0.036
380.00,0.036
380.50,0.031
381.00,0.034
381.50,0.037
382.00,0.033
382.50,0.043
383.00,0.040
383.50,0.034
384.00,0.027
384.50,0.031
385.00,0.038
385.50,0.038
386.00,0.032
386.50,0.030
387.00,0.034
387.50,0.034
388.00,0.029
388.50,0.035
389.00,0.033
389.50,0.030
390.00,0.025
390.50,0.022
391.00,0.028
391.50,0.030
392.00,0.038
392.50,0.036
393.00,0.035
393.50,0.034
394.00,0.036
394.50,0.032
395.00,0.032
395.50,0.030
396.00,0.029
396.50,0.032
397.00,0.033
397.50,0.037
398.00,0.030
398.50,0.031
399.00,0.034
399.50,0.029
400.00,0.032
400.50,0.032
401.00,0.034
401.50,0.034
402.00,0.032
402.50,0.031
403.00,0.030
403.50,0.028
404.00,0.028
404.50,0.035
405.00,0.034
405.50,0.028
406.00,0.028
406.50,0.033
407.00,0.036
407.50,0.032
408.00,0.032
408.50,0.033
409.00,0.027
409.50,0.027
410.00,0.030
410.50,0.029
411.00,0.035
411.50,0.037
412.00,0.029
412.50,0.025
413.00,0.027
413.50,0.028
414.00,0.032
414.50,0.026
415.00,0.028
415.50,0.028
416.00,0.032
416.50,0.029
417.00,0.029
417.50,0.025
418.00,0.031
418.50,0.025
419.00,0.025
419.50,0.026
420.00,0.024
420.50,0.030
421.00,0.033
421.50,0.025
422.00,0.034
422.50,0.030
423.00,0.022
423.50,0.023
424.00,0.016
424.50,0.018
425.00,0.021
425.50,0.025
426.00,0.026
426.50,0.024
427.00,0.020
427.50,0.022
428.00,0.022
428.50,0.019
429.00,0.025
429.50,0.023
430.00,0.023
430.50,0.024
431.00,0.027
431.50,0.023
432.00,0.025
432.50,0.024
433.00,0.023
433.50,0.024
434.00,0.027
434.50,0.027
435.00,0.025
435.50,0.021
436.00,0.022
436.50,0.017
437.00,0.020
437.50,0.025
438.00,0.022
438.50,0.024
439.00,0.025
439.50,0.023
440.00,0.019
440.50,0.024
441.00,0.028
441.50,0.028
442.00,0.029
442.50,0.026
443.00,0.020
443.50,0.021
444.00,0.025
444.50,0.026
445.00,0.026
445.50,0.026
446.00,0.021
446.50,0.023
447.00,0.020
447.50,0.022
448.00,0.027
448.50,0.025
449.00,0.025
449.50,0.023
450.00,0.018
450.50,0.020
451.00,0.020
451.50,0.019
452.00,0.020
452.50,0.028
453.00,0.025
453.50,0.024
454.00,0.018
454.50,0.016
455.00,0.018
455.50,0.020
456.00,0.024
456.50,0.023
457.00,0.020
457.50,0.026
458.00,0.023
458.50,0.022
459.00,0.022
459.50,0.022
460.00,0.026
460.50,0.022
461.00,0.019
461.50,0.020
462.00,0.020
462.50,0.018
463.00,0.022
463.50,0.019
464.00,0.024
464.50,0.019
465.00,0.020
465.50,0.022
466.00,0.018
466.50,0.017
467.00,0.020
467.50,0.021
468.00,0.020
468.50,0.022
469.00,0.016
469.50,0.020
470.00,0.021
470.50,0.018
471.00,0.019
471.50,0.019
472.00,0.021
472.50,0.021
473.00,0.020
473.50,0.023
474.00,0.020
474.50,0.021
475.00,0.021
475.50,0.020
476.00,0.020
476.50,0.018
477.00,0.024
477.50,0.023
478.00,0.024
478.50,0.021
479.00,0.024
479.50,0.023
480.00,0.024
480.50,0.025
481.00,0.021
481.50,0.025
482.00,0.019
482.50,0.018
483.00,0.019
483.50,0.023
484.00,0.020
484.50,0.023
485.00,0.021
485.50,0.025
486.00,0.021
486.50,0.021
487.00,0.023
487.50,0.027
488.00,0.019
488.50,0.025
489.00,0.023
489.50,0.024
490.00,0.026
490.50,0.026
491.00,0.022
491.50,0.021
492.00,0.027
492.50,0.023
493.00,0.022
493.50,0.028
494.00,0.026
494.50,0.025
495.00,0.024
495.50,0.023
496.00,0.019
496.50,0.023
497.00,0.024
497.50,0.028
498.00,0.024
498.50,0.023
499.00,0.024
499.50,0.026
500.00,0.029
500.50,0.025
501.00,0.027
501.50,0.028
502.00,0.026
502.50,0.031
503.00,0.027
503.50,0.030
504.00,0.030
504.50,0.029
505.00,0.030
505.50,0.027
506.00,0.027
506.50,0.026
507.00,0.027
507.50,0.028
508.00,0.026
508.50,0.027
509.00,0.027
509.50,0.029
510.00,0.028
510.50,0.035
511.00,0.030
511.50,0.030
512.00,0.031
512.50,0.031
513.00,0.032
513.50,0.032
514.00,0.035
514.50,0.030
515.00,0.030
515.50,0.032
516.00,0.032
516.50,0.033
517.00,0.036
517.50,0.040
518.00,0.037
518.50,0.033
519.00,0.035
519.50,0.039
520.00,0.038
520.50,0.034
521.00,0.036
521.50,0.038
522.00,0.039
522.50,0.041
523.00,0.038
523.50,0.039
524.00,0.041
524.50,0.040
525.00,0.044
525.50,0.044
526.00,0.039
526.50,0.041
527.00,0.041
527.50,0.041
528.00,0.044
528.50,0.042
529.00,0.040
529.50,0.041
530.00,0.040
530.50,0.038
531.00,0.044
531.50,0.042
532.00,0.049
532.50,0.044
533.00,0.045
533.50,0.045
534.00,0.043
534.50,0.046
535.00,0.048
535.50,0.047
536.00,0.044
536.50,0.047
537.00,0.047
537.50,0.046
538.00,0.045
538.50,0.045
539.00,0.044
539.50,0.046
540.00,0.047
540.50,0.044
541.00,0.044
541.50,0.043
542.00,0.040
542.50,0.039
543.00,0.043
543.50,0.042
544.00,0.040
544.50,0.046
545.00,0.047
545.50,0.043
546.00,0.043
546.50,0.046
547.00,0.047
547.50,0.045
548.00,0.046
548.50,0.044
549.00,0.045
549.50,0.046
550.00,0.045
550.50,0.048
551.00,0.044
551.50,0.041
552.00,0.044
552.50,0.042
553.00,0.043
553.50,0.043
554.00,0.042
554.50,0.042
555.00,0.042
555.50,0.042
556.00,0.039
556.50,0.042
557.00,0.044
557.50,0.043
558.00,0.043
558.50,0.043
559.00,0.042
559.50,0.043
560.00,0.044
560.50,0.042
561.00,0.038
561.50,0.041
562.00,0.044
562.50,0.041
563.00,0.043
563.50,0.041
564.00,0.038
564.50,0.040
565.00,0.037
565.50,0.033
566.00,0.029
566.50,0.036
567.00,0.034
567.50,0.039
568.00,0.035
568.50,0.032
569.00,0.034
569.50,0.028
570.00,0.029
570.50,0.033
571.00,0.030
571.50,0.032
572.00,0.032
572.50,0.029
573.00,0.030
573.50,0.027
574.00,0.028
574.50,0.022
575.00,0.025
575.50,0.023
576.00,0.023
576.50,0.027
577.00,0.023
577.50,0.020
578.00,0.021
578.50,0.019
579.00,0.020
579.50,0.021
580.00,0.022
580.50,0.022
581.00,0.021
581.50,0.017
582.00,0.021
582.50,0.018
583.00,0.017
583.50,0.017
584.00,0.014
584.50,0.012
585.00,0.011
585.50,0.012
586.00,0.012
586.50,0.011
587.00,0.014
587.50,0.015
588.00,0.011
588.50,0.013
589.00,0.012
589.50,0.012
590.00,0.013
590.50,0.015
591.00,0.012
591.50,0.015
592.00,0.015
592.50,0.013
593.00,0.008
593.50,0.011
594.00,0.014
594.50,0.017
595.00,0.011
595.50,0.017
596.00,0.014
596.50,0.012
597.00,0.014
597.50,0.013
598.00,0.012
598.50,0.012
599.00,0.009
599.50,0.014
600.00,0.013
600.50,0.010
601.00,0.012
601.50,0.013
602.00,0.015
602.50,0.011
603.00,0.012
603.50,0.015
604.00,0.014
604.50,0.009
605.00,0.015
605.50,0.012
606.00,0.010
606.50,0.012
607.00,0.013
607.50,0.014
608.00,0.014
608.50,0.012
609.00,0.014
609.50,0.015
610.00,0.011
610.50,0.010
611.00,0.011
611.50,0.010
612.00,0.013
612.50,0.016
613.00,0.013
613.50,0.012
614.00,0.011
614.50,0.012
615.00,0.012
615.50,0.017
616.00,0.019
616.50,0.016
617.00,0.012
617.50,0.011
618.00,0.013
618.50,0.013
619.00,0.017
619.50,0.014
620.00,0.013
620.50,0.011
621.00,0.012
621.50,0.007
622.00,0.011
622.50,0.007
623.00,0.010
623.50,0.013
624.00,0.010
624.50,0.013
625.00,0.013
625.50,0.014
626.00,0.013
626.50,0.012
627.00,0.011
627.50,0.019
628.00,0.012
628.50,0.018
629.00,0.014
629.50,0.013
630.00,0.009
630.50,0.015
631.00,0.013
631.50,0.008
632.00,0.012
632.50,0.010
633.00,0.013
633.50,0.012
634.00,0.011
634.50,0.010
635.00,0.012
635.50,0.015
636.00,0.011
636.50,0.010
637.00,0.014
637.50,0.014
638.00,0.009
638.50,0.004
639.00,0.008
639.50,0.003
640.00,0.008
640.50,0.010
641.00,0.014
641.50,0.008
642.00,0.010
642.50,0.007
643.00,0.008
643.50,0.005
644.00,0.003
644.50,0.009
645.00,0.010
645.50,0.010
646.00,0.012
646.50,0.006
647.00,0.011
647.50,0.009
648.00,0.010
648.50,0.010
649.00,0.016
649.50,0.013
650.00,0.011
650.50,0.011
651.00,0.008
651.50,0.011
652.00,0.011
652.50,0.009
653.00,0.010
653.50,0.013
654.00,0.009
654.50,0.011
655.00,0.011
655.50,0.008
656.00,0.011
656.50,0.009
657.00,0.009
657.50,0.008
658.00,0.010
658.50,0.006
659.00,0.012
659.50,0.012
660.00,0.011
660.50,0.011
661.00,0.006
661.50,0.007
662.00,0.014
662.50,0.006
663.00,0.010
663.50,0.008
664.00,0.008
664.50,0.008
665.00,0.010
665.50,0.009
666.00,0.010
666.50,0.008
667.00,0.006
667.50,0.007
668.00,0.008
668.50,0.007
669.00,0.003
669.50,0.005
670.00,0.009
670.50,0.010
671.00,0.013
671.50,0.008
672.00,0.006
672.50,0.006
673.00,0.011
673.50,0.008
674.00,0.010
674.50,0.009
675.00,0.007
675.50,0.006
676.00,0.006
676.50,0.004
677.00,0.007
677.50,0.006
678.00,0.007
678.50,0.009
679.00,0.011
679.50,0.014
680.00,0.012
680.50,0.010
681.00,0.005
681.50,0.006
682.00,0.005
682.50,0.006
683.00,0.011
683.50,0.006
684.00,0.005
684.50,0.008
685.00,0.015
685.50,0.008
686.00,0.009
686.50,0.010
687.00,0.008
687.50,0.008
688.00,0.007
688.50,0.013
689.00,0.014
689.50,0.019
690.00,0.014
690.50,0.008
691.00,0.006
691.50,0.009
692.00,0.009
692.50,0.012
693.00,0.010
693.50,0.013
694.00,0.015
694.50,0.014
695.00,0.006
695.50,0.009
696.00,0.006
696.50,0.008
697.00,0.009
697.50,0.016
698.00,0.009
698.50,0.007
699.00,0.010
699.50,0.004
700.00,0.009
700.50,0.012
701.00,0.009
701.50,0.016
702.00,0.007
702.50,0.010
703.00,0.009
703.50,0.004
704.00,0.012
704.50,0.008
705.00,0.011
705.50,0.010
706.00,0.010
706.50,0.012
707.00,0.012
707.50,0.007
708.00,0.004
708.50,0.009
709.00,0.007
709.50,0.012
710.00,0.001
710.50,0.001
711.00,0.007
711.50,0.014
712.00,0.023
712.50,0.017
713.00,0.005
713.50,0.016
714.00,0.007
714.50,0.005
715.00,0.008
715.50,0.011
716.00,0.010
716.50,0.004
717.00,0.007
717.50,0.011
718.00,0.008
718.50,0.017
719.00,0.014
719.50,0.013
720.00,0.009
720.50,0.012
721.00,0.005
721.50,0.007
722.00,0.006
722.50,0.002
723.00,0.005
723.50,0.009
724.00,0.008
724.50,0.005
725.00,0.011
725.50,0.007
726.00,0.006
726.50,0.008
727.00,0.002
727.50,0.006
728.00,0.007
728.50,0.010
729.00,0.009
729.50,0.014
730.00,0.015
730.50,0.012
731.00,0.006
731.50,0.007
732.00,0.005
732.50,0.007
733.00,-0.004
733.50,0.006
734.00,0.004
734.50,0.007
735.00,0.004
735.50,0.013
736.00,0.006
736.50,0.002
737.00,0.006
737.50,0.006
738.00,0.009
738.50,0.006
739.00,0.006
739.50,0.010
740.00,0.011
740.50,0.009
741.00,0.007
741.50,0.003
742.00,0.004
742.50,-0.006
743.00,0.010
743.50,0.013
744.00,0.014
744.50,0.018
745.00,0.017
745.50,0.006
746.00,0.005
746.50,0.011
747.00,0.010
747.50,0.011
748.00,0.008
748.50,0.006
749.00,0.012
749.50,0.000
750.00,0.009
750.50,0.006
751.00,0.006
751.50,0.012
752.00,0.013
752.50,0.010
753.00,0.010
753.50,0.009
754.00,0.011
754.50,0.004
755.00,0.012
755.50,0.009
756.00,0.011
756.50,0.011
757.00,0.005
757.50,0.003
758.00,0.007
758.50,0.013
759.00,0.017
759.50,0.005
760.00,-0.001
760.50,0.008
761.00,0.014
761.50,0.012
762.00,0.006
762.50,0.014
763.00,0.010
763.50,0.015
764.00,0.005
764.50,-0.001
765.00,0.009
765.50,0.008
766.00,0.006
766.50,0.012
767.00,0.008
767.50,0.015
768.00,0.007
768.50,0.005
769.00,0.005
769.50,0.005
770.00,-0.002
770.50,0.007
771.00,0.012
771.50,0.008
772.00,-0.005
772.50,0.007
773.00,0.012
773.50,0.005
774.00,0.008
774.50,0.006
775.00,0.003
775.50,0.006
776.00,0.006
776.50,0.005
777.00,0.011
777.50,0.009
778.00,0.005
778.50,0.004
779.00,-0.002
779.50,0.010
780.00,0.006
780.50,0.015
781.00,0.013
781.50,0.003
782.00,0.012
782.50,0.007
783.00,0.005
783.50,0.009
784.00,0.012
784.50,0.010
785.00,0.006
785.50,0.006
786.00,0.007
786.50,-0.004
787.00,0.010
787.50,0.006
788.00,0.007
788.50,-0.000
789.00,0.009
789.50,0.013
790.00,0.003
790.50,0.003
791.00,0.005
791.50,0.007
792.00,0.011
792.50,0.010
793.00,-0.001
793.50,0.008
794.00,0.006
794.50,0.002
795.00,0.004
795.50,0.002
796.00,0.002
796.50,0.001
797.00,0.005
797.50,0.005
798.00,0.006
798.50,-0.006
799.00,0.003
799.50,0.000
800.00,-0.005
