"pink-drop-1 - RawData - C:\Documents and Settings\uvvis\Desktop\w\File_260418_232002.spc"
"Wavelength nm.","Abs."
200.00,2.386
200.50,2.723
201.00,3.097
201.50,5.000
202.00,5.000
202.50,5.000
203.00,5.000
203.50,2.570
204.00,2.839
204.50,3.397
205.00,3.414
205.50,3.647
206.00,2.953
206.50,2.890
207.00,5.000
207.50,3.173
208.00,2.765
208.50,5.000
209.00,5.000
209.50,5.000
210.00,3.751
210.50,5.000
211.00,5.000
211.50,5.000
212.00,4.487
212.50,5.000
213.00,3.228
213.50,5.000
214.00,5.000
214.50,2.734
215.00,2.947
215.50,5.000
216.00,2.947
216.50,5.000
217.00,5.000
217.50,5.000
218.00,2.978
218.50,3.564
219.00,2.794
219.50,3.005
220.00,2.552
220.50,2.391
221.00,2.421
221.50,2.359
222.00,2.152
222.50,2.082
223.00,2.055
223.50,1.969
224.00,1.860
224.50,1.801
225.00,1.759
225.50,1.747
226.00,1.646
226.50,1.666
227.00,1.592
227.50,1.574
228.00,1.611
228.50,1.522
229.00,1.476
229.50,1.499
230.00,1.470
230.50,1.433
231.00,1.400
231.50,1.401
232.00,1.379
232.50,1.323
233.00,1.334
233.50,1.283
234.00,1.339
234.50,1.255
235.00,1.287
235.50,1.293
236.00,1.243
236.50,1.212
237.00,1.217
237.50,1.190
238.00,1.179
238.50,1.198
239.00,1.151
239.50,1.155
240.00,1.159
240.50,1.123
241.00,1.120
241.50,1.113
242.00,1.092
242.50,1.089
243.00,1.085
243.50,1.072
244.00,1.068
244.50,1.051
245.00,1.045
245.50,1.022
246.00,1.031
246.50,1.020
247.00,1.020
247.50,0.987
248.00,1.012
248.50,0.990
249.00,1.011
249.50,0.998
250.00,0.976
250.50,0.984
251.00,0.957
251.50,0.943
252.00,0.943
252.50,0.954
253.00,0.939
253.50,0.927
254.00,0.928
254.50,0.934
255.00,0.899
255.50,0.891
256.00,0.872
256.50,0.892
257.00,0.876
257.50,0.877
258.00,0.865
258.50,0.848
259.00,0.853
259.50,0.845
260.00,0.850
260.50,0.838
261.00,0.830
261.50,0.810
262.00,0.822
262.50,0.812
263.00,0.793
263.50,0.790
264.00,0.797
264.50,0.797
265.00,0.771
265.50,0.766
266.00,0.750
266.50,0.731
267.00,0.741
267.50,0.745
268.00,0.719
268.50,0.717
269.00,0.701
269.50,0.688
270.00,0.693
270.50,0.680
271.00,0.673
271.50,0.665
272.00,0.650
272.50,0.646
273.00,0.660
273.50,0.634
274.00,0.642
274.50,0.643
275.00,0.624
275.50,0.649
276.00,0.640
276.50,0.625
277.00,0.623
277.50,0.611
278.00,0.606
278.50,0.609
279.00,0.604
279.50,0.599
280.00,0.582
280.50,0.589
281.00,0.586
281.50,0.592
282.00,0.578
282.50,0.579
283.00,0.577
283.50,0.569
284.00,0.563
284.50,0.554
285.00,0.544
285.50,0.547
286.00,0.539
286.50,0.548
287.00,0.537
287.50,0.530
288.00,0.529
288.50,0.522
289.00,0.531
289.50,0.527
290.00,0.522
290.50,0.517
291.00,0.522
291.50,0.510
292.00,0.494
292.50,0.485
293.00,0.506
293.50,0.494
294.00,0.485
294.50,0.490
295.00,0.474
295.50,0.486
296.00,0.456
296.50,0.462
297.00,0.469
297.50,0.456
298.00,0.453
298.50,0.471
299.00,0.462
299.50,0.452
300.00,0.446
300.50,0.427
301.00,0.439
301.50,0.435
302.00,0.434
302.50,0.427
303.00,0.420
303.50,0.432
304.00,0.426
304.50,0.411
305.00,0.423
305.50,0.410
306.00,0.407
306.50,0.415
307.00,0.427
307.50,0.402
308.00,0.404
308.50,0.398
309.00,0.404
309.50,0.411
310.00,0.396
310.50,0.413
311.00,0.380
311.50,0.375
312.00,0.373
312.50,0.384
313.00,0.379
313.50,0.373
314.00,0.383
314.50,0.375
315.00,0.369
315.50,0.352
316.00,0.343
316.50,0.335
317.00,0.340
317.50,0.342
318.00,0.371
318.50,0.338
319.00,0.337
319.50,0.318
320.00,0.336
320.50,0.322
321.00,0.325
321.50,0.338
322.00,0.332
322.50,0.338
323.00,0.320
323.50,0.311
324.00,0.323
324.50,0.320
325.00,0.332
325.50,0.303
326.00,0.337
326.50,0.313
327.00,0.315
327.50,0.312
328.00,0.334
328.50,0.328
329.00,0.313
329.50,0.313
330.00,0.323
330.50,0.311
331.00,0.317
331.50,0.306
332.00,0.319
332.50,0.305
333.00,0.294
333.50,0.296
334.00,0.282
334.50,0.294
335.00,0.304
335.50,0.277
336.00,0.275
336.50,0.265
337.00,0.276
337.50,0.266
338.00,0.286
338.50,0.285
339.00,0.244
339.50,0.274
340.00,0.257
340.50,0.270
341.00,0.250
341.50,0.261
342.00,0.262
342.50,0.263
343.00,0.265
343.50,0.281
344.00,0.271
344.50,0.267
345.00,0.249
345.50,0.262
346.00,0.261
346.50,0.256
347.00,0.259
347.50,0.250
348.00,0.253
348.50,0.256
349.00,0.257
349.50,0.254
350.00,0.255
350.50,0.255
351.00,0.265
351.50,0.252
352.00,0.255
352.50,0.259
353.00,0.259
353.50,0.248
354.00,0.248
354.50,0.241
355.00,0.246
355.50,0.242
356.00,0.251
356.50,0.244
357.00,0.237
357.50,0.226
358.00,0.224
358.50,0.214
359.00,0.221
359.50,0.213
360.00,0.209
360.50,0.235
361.00,0.220
361.50,0.224
362.00,0.227
362.50,0.227
363.00,0.226
363.50,0.222
364.00,0.211
364.50,0.210
365.00,0.217
365.50,0.209
366.00,0.220
366.50,0.202
367.00,0.209
367.50,0.199
368.00,0.206
368.50,0.198
369.00,0.199
369.50,0.208
370.00,0.206
370.50,0.204
371.00,0.202
371.50,0.197
372.00,0.184
372.50,0.193
373.00,0.193
373.50,0.199
374.00,0.195
374.50,0.199
375.00,0.200
375.50,0.179
376.00,0.185
376.50,0.186
377.00,0.188
377.50,0.189
378.00,0.184
378.50,0.194
379.00,0.182
379.50,0.178
380.00,0.185
380.50,0.179
381.00,0.182
381.50,0.174
382.00,0.187
382.50,0.175
383.00,0.176
383.50,0.175
384.00,0.176
384.50,0.176
385.00,0.175
385.50,0.178
386.00,0.167
386.50,0.168
387.00,0.171
387.50,0.171
388.00,0.167
388.50,0.169
389.00,0.167
389.50,0.162
390.00,0.168
390.50,0.163
391.00,0.166
391.50,0.165
392.00,0.163
392.50,0.161
393.00,0.168
393.50,0.155
394.00,0.165
394.50,0.164
395.00,0.157
395.50,0.159
396.00,0.154
396.50,0.161
397.00,0.158
397.50,0.151
398.00,0.160
398.50,0.156
399.00,0.154
399.50,0.159
400.00,0.160
400.50,0.161
401.00,0.156
401.50,0.153
402.00,0.150
402.50,0.152
403.00,0.157
403.50,0.149
404.00,0.148
404.50,0.152
405.00,0.145
405.50,0.147
406.00,0.147
406.50,0.141
407.00,0.147
407.50,0.144
408.00,0.146
408.50,0.141
409.00,0.140
409.50,0.139
410.00,0.143
410.50,0.144
411.00,0.146
411.50,0.147
412.00,0.142
412.50,0.136
413.00,0.134
413.50,0.137
414.00,0.134
414.50,0.136
415.00,0.142
415.50,0.132
416.00,0.138
416.50,0.134
417.00,0.129
417.50,0.138
418.00,0.137
418.50,0.136
419.00,0.129
419.50,0.131
420.00,0.134
420.50,0.134
421.00,0.131
421.50,0.134
422.00,0.139
422.50,0.132
423.00,0.133
423.50,0.130
424.00,0.126
424.50,0.120
425.00,0.122
425.50,0.127
426.00,0.128
426.50,0.127
427.00,0.127
427.50,0.122
428.00,0.123
428.50,0.126
429.00,0.125
429.50,0.118
430.00,0.126
430.50,0.125
431.00,0.123
431.50,0.120
432.00,0.119
432.50,0.117
433.00,0.121
433.50,0.127
434.00,0.123
434.50,0.120
435.00,0.114
435.50,0.115
436.00,0.112
436.50,0.116
437.00,0.114
437.50,0.110
438.00,0.111
438.50,0.113
439.00,0.110
439.50,0.116
440.00,0.116
440.50,0.117
441.00,0.115
441.50,0.119
442.00,0.119
442.50,0.119
443.00,0.110
443.50,0.110
444.00,0.114
444.50,0.116
445.00,0.112
445.50,0.110
446.00,0.116
446.50,0.112
447.00,0.110
447.50,0.111
448.00,0.112
448.50,0.114
449.00,0.108
449.50,0.104
450.00,0.105
450.50,0.103
451.00,0.103
451.50,0.104
452.00,0.108
452.50,0.107
453.00,0.106
453.50,0.104
454.00,0.107
454.50,0.101
455.00,0.100
455.50,0.104
456.00,0.105
456.50,0.104
457.00,0.103
457.50,0.104
458.00,0.106
458.50,0.103
459.00,0.099
459.50,0.101
460.00,0.101
460.50,0.101
461.00,0.099
461.50,0.099
462.00,0.100
462.50,0.098
463.00,0.094
463.50,0.097
464.00,0.095
464.50,0.097
465.00,0.095
465.50,0.092
466.00,0.098
466.50,0.097
467.00,0.098
467.50,0.099
468.00,0.096
468.50,0.099
469.00,0.096
469.50,0.097
470.00,0.096
470.50,0.097
471.00,0.093
471.50,0.095
472.00,0.095
472.50,0.096
473.00,0.095
473.50,0.097
474.00,0.091
474.50,0.096
475.00,0.094
475.50,0.098
476.00,0.095
476.50,0.091
477.00,0.097
477.50,0.095
478.00,0.094
478.50,0.095
479.00,0.096
479.50,0.094
480.00,0.100
480.50,0.100
481.00,0.101
481.50,0.097
482.00,0.098
482.50,0.096
483.00,0.099
483.50,0.103
484.00,0.104
484.50,0.104
485.00,0.105
485.50,0.104
486.00,0.105
486.50,0.104
487.00,0.106
487.50,0.105
488.00,0.104
488.50,0.108
489.00,0.108
489.50,0.110
490.00,0.111
490.50,0.112
491.00,0.113
491.50,0.110
492.00,0.114
492.50,0.116
493.00,0.110
493.50,0.114
494.00,0.120
494.50,0.117
495.00,0.116
495.50,0.112
496.00,0.117
496.50,0.114
497.00,0.113
497.50,0.116
498.00,0.117
498.50,0.117
499.00,0.116
499.50,0.119
500.00,0.121
500.50,0.123
501.00,0.127
501.50,0.125
502.00,0.127
502.50,0.127
503.00,0.131
503.50,0.130
504.00,0.132
504.50,0.131
505.00,0.130
505.50,0.132
506.00,0.132
506.50,0.131
507.00,0.134
507.50,0.134
508.00,0.133
508.50,0.133
509.00,0.135
509.50,0.139
510.00,0.141
510.50,0.145
511.00,0.148
511.50,0.149
512.00,0.148
512.50,0.150
513.00,0.156
513.50,0.158
514.00,0.161
514.50,0.159
515.00,0.164
515.50,0.160
516.00,0.164
516.50,0.169
517.00,0.169
517.50,0.174
518.00,0.177
518.50,0.175
519.00,0.180
519.50,0.181
520.00,0.184
520.50,0.187
521.00,0.190
521.50,0.190
522.00,0.195
522.50,0.197
523.00,0.200
523.50,0.199
524.00,0.206
524.50,0.212
525.00,0.211
525.50,0.212
526.00,0.217
526.50,0.215
527.00,0.218
527.50,0.219
528.00,0.225
528.50,0.221
529.00,0.222
529.50,0.220
530.00,0.226
530.50,0.227
531.00,0.231
531.50,0.230
532.00,0.234
532.50,0.230
533.00,0.232
533.50,0.237
534.00,0.236
534.50,0.234
535.00,0.230
535.50,0.230
536.00,0.229
536.50,0.232
537.00,0.229
537.50,0.234
538.00,0.236
538.50,0.232
539.00,0.231
539.50,0.226
540.00,0.225
540.50,0.225
541.00,0.229
541.50,0.231
542.00,0.230
542.50,0.227
543.00,0.224
543.50,0.225
544.00,0.223
544.50,0.223
545.00,0.224
545.50,0.228
546.00,0.227
546.50,0.226
547.00,0.227
547.50,0.225
548.00,0.225
548.50,0.227
549.00,0.225
549.50,0.229
550.00,0.223
550.50,0.225
551.00,0.223
551.50,0.222
552.00,0.226
552.50,0.225
553.00,0.223
553.50,0.223
554.00,0.229
554.50,0.223
555.00,0.225
555.50,0.222
556.00,0.220
556.50,0.223
557.00,0.223
557.50,0.221
558.00,0.220
558.50,0.219
559.00,0.220
559.50,0.217
560.00,0.215
560.50,0.214
561.00,0.214
561.50,0.209
562.00,0.209
562.50,0.207
563.00,0.201
563.50,0.201
564.00,0.200
564.50,0.197
565.00,0.197
565.50,0.189
566.00,0.188
566.50,0.186
567.00,0.179
567.50,0.179
568.00,0.176
568.50,0.170
569.00,0.165
569.50,0.164
570.00,0.162
570.50,0.156
571.00,0.151
571.50,0.151
572.00,0.144
572.50,0.140
573.00,0.143
573.50,0.131
574.00,0.130
574.50,0.121
575.00,0.120
575.50,0.122
576.00,0.119
576.50,0.113
577.00,0.112
577.50,0.106
578.00,0.102
578.50,0.103
579.00,0.097
579.50,0.095
580.00,0.092
580.50,0.088
581.00,0.085
581.50,0.084
582.00,0.082
582.50,0.079
583.00,0.072
583.50,0.071
584.00,0.071
584.50,0.070
585.00,0.065
585.50,0.059
586.00,0.063
586.50,0.064
587.00,0.059
587.50,0.058
588.00,0.057
588.50,0.055
589.00,0.055
589.50,0.057
590.00,0.059
590.50,0.057
591.00,0.054
591.50,0.054
592.00,0.052
592.50,0.050
593.00,0.047
593.50,0.046
594.00,0.049
594.50,0.049
595.00,0.052
595.50,0.055
596.00,0.052
596.50,0.049
597.00,0.052
597.50,0.049
598.00,0.044
598.50,0.040
599.00,0.040
599.50,0.043
600.00,0.042
600.50,0.042
601.00,0.040
601.50,0.040
602.00,0.038
602.50,0.040
603.00,0.036
603.50,0.039
604.00,0.042
604.50,0.045
605.00,0.047
605.50,0.042
606.00,0.041
606.50,0.038
607.00,0.040
607.50,0.042
608.00,0.038
608.50,0.036
609.00,0.037
609.50,0.037
610.00,0.038
610.50,0.040
611.00,0.039
611.50,0.039
612.00,0.037
612.50,0.036
613.00,0.041
613.50,0.039
614.00,0.036
614.50,0.036
615.00,0.038
615.50,0.039
616.00,0.042
616.50,0.040
617.00,0.040
617.50,0.041
618.00,0.040
618.50,0.037
619.00,0.040
619.50,0.039
620.00,0.035
620.50,0.039
621.00,0.038
621.50,0.033
622.00,0.034
622.50,0.032
623.00,0.031
623.50,0.030
624.00,0.032
624.50,0.036
625.00,0.038
625.50,0.038
626.00,0.041
626.50,0.036
627.00,0.037
627.50,0.039
628.00,0.039
628.50,0.039
629.00,0.044
629.50,0.041
630.00,0.034
630.50,0.038
631.00,0.039
631.50,0.035
632.00,0.035
632.50,0.031
633.00,0.033
633.50,0.031
634.00,0.034
634.50,0.040
635.00,0.037
635.50,0.038
636.00,0.034
636.50,0.036
637.00,0.037
637.50,0.032
638.00,0.033
638.50,0.030
639.00,0.029
639.50,0.034
640.00,0.034
640.50,0.031
641.00,0.032
641.50,0.036
642.00,0.032
642.50,0.031
643.00,0.031
643.50,0.030
644.00,0.031
644.50,0.029
645.00,0.030
645.50,0.032
646.00,0.032
646.50,0.033
647.00,0.031
647.50,0.029
648.00,0.029
648.50,0.028
649.00,0.032
649.50,0.032
650.00,0.030
650.50,0.033
651.00,0.033
651.50,0.031
652.00,0.034
652.50,0.030
653.00,0.031
653.50,0.031
654.00,0.027
654.50,0.030
655.00,0.030
655.50,0.034
656.00,0.035
656.50,0.033
657.00,0.028
657.50,0.025
658.00,0.028
658.50,0.033
659.00,0.035
659.50,0.035
660.00,0.031
660.50,0.027
661.00,0.029
661.50,0.028
662.00,0.031
662.50,0.024
663.00,0.024
663.50,0.030
664.00,0.028
664.50,0.030
665.00,0.033
665.50,0.031
666.00,0.027
666.50,0.029
667.00,0.033
667.50,0.030
668.00,0.031
668.50,0.022
669.00,0.027
669.50,0.028
670.00,0.025
670.50,0.029
671.00,0.028
671.50,0.026
672.00,0.023
672.50,0.024
673.00,0.028
673.50,0.028
674.00,0.037
674.50,0.030
675.00,0.030
675.50,0.029
676.00,0.029
676.50,0.027
677.00,0.023
677.50,0.025
678.00,0.022
678.50,0.026
679.00,0.023
679.50,0.031
680.00,0.025
680.50,0.027
681.00,0.028
681.50,0.030
682.00,0.023
682.50,0.025
683.00,0.024
683.50,0.029
684.00,0.031
684.50,0.030
685.00,0.025
685.50,0.025
686.00,0.025
686.50,0.028
687.00,0.032
687.50,0.023
688.00,0.025
688.50,0.034
689.00,0.030
689.50,0.034
690.00,0.031
690.50,0.027
691.00,0.024
691.50,0.025
692.00,0.022
692.50,0.028
693.00,0.028
693.50,0.027
694.00,0.029
694.50,0.028
695.00,0.025
695.50,0.020
696.00,0.022
696.50,0.023
697.00,0.025
697.50,0.034
698.00,0.030
698.50,0.023
699.00,0.027
699.50,0.021
700.00,0.022
700.50,0.027
701.00,0.026
701.50,0.024
702.00,0.023
702.50,0.023
703.00,0.025
703.50,0.025
704.00,0.021
704.50,0.018
705.00,0.021
705.50,0.020
706.00,0.019
706.50,0.029
707.00,0.026
707.50,0.021
708.00,0.023
708.50,0.027
709.00,0.021
709.50,0.024
710.00,0.030
710.50,0.022
711.00,0.022
711.50,0.023
712.00,0.025
712.50,0.026
713.00,0.024
713.50,0.024
714.00,0.019
714.50,0.019
715.00,0.024
715.50,0.016
716.00,0.023
716.50,0.024
717.00,0.026
717.50,0.023
718.00,0.028
718.50,0.026
719.00,0.028
719.50,0.032
720.00,0.023
720.50,0.028
721.00,0.031
721.50,0.025
722.00,0.014
722.50,0.018
723.00,0.027
723.50,0.026
724.00,0.024
724.50,0.026
725.00,0.021
725.50,0.019
726.00,0.020
726.50,0.027
727.00,0.029
727.50,0.020
728.00,0.019
728.50,0.025
729.00,0.034
729.50,0.025
730.00,0.025
730.50,0.021
731.00,0.025
731.50,0.025
732.00,0.021
732.50,0.023
733.00,0.018
733.50,0.018
734.00,0.021
734.50,0.029
735.00,0.022
735.50,0.023
736.00,0.018
736.50,0.019
737.00,0.024
737.50,0.019
738.00,0.023
738.50,0.024
739.00,0.018
739.50,0.012
740.00,0.015
740.50,0.020
741.00,0.025
741.50,0.016
742.00,0.019
742.50,0.018
743.00,0.013
743.50,0.027
744.00,0.029
744.50,0.032
745.00,0.019
745.50,0.019
746.00,0.014
746.50,0.021
747.00,0.019
747.50,0.028
748.00,0.020
748.50,0.019
749.00,0.018
749.50,0.015
750.00,0.027
750.50,0.021
751.00,0.018
751.50,0.020
752.00,0.021
752.50,0.020
753.00,0.027
753.50,0.027
754.00,0.019
754.50,0.029
755.00,0.023
755.50,0.021
756.00,0.025
756.50,0.017
757.00,0.017
757.50,0.024
758.00,0.016
758.50,0.025
759.00,0.034
759.50,0.018
760.00,0.016
760.50,0.018
761.00,0.016
761.50,0.021
762.00,0.036
762.50,0.024
763.00,0.020
763.50,0.019
764.00,0.017
764.50,0.019
765.00,0.027
765.50,0.021
766.00,0.021
766.50,0.029
767.00,0.016
767.50,0.014
768.00,0.018
768.50,0.015
769.00,0.012
769.50,0.016
770.00,0.017
770.50,0.019
771.00,0.022
771.50,0.011
772.00,0.021
772.50,0.023
773.00,0.016
773.50,0.015
774.00,0.018
774.50,0.022
775.00,0.022
775.50,0.013
776.00,0.015
776.50,0.016
777.00,0.022
777.50,0.028
778.00,0.014
778.50,0.018
779.00,0.014
779.50,0.013
780.00,0.017
780.50,0.021
781.00,0.028
781.50,0.019
782.00,0.013
782.50,0.018
783.00,0.020
783.50,0.016
784.00,0.022
784.50,0.019
785.00,0.018
785.50,0.021
786.00,0.013
786.50,0.024
787.00,0.027
787.50,0.023
788.00,0.016
788.50,0.013
789.00,0.018
789.50,0.022
790.00,0.024
790.50,0.025
791.00,0.022
791.50,0.018
792.00,0.010
792.50,0.017
793.00,0.020
793.50,0.013
794.00,0.012
794.50,0.009
795.00,0.006
795.50,0.010
796.00,0.007
796.50,0.011
797.00,0.024
797.50,0.020
798.00,0.015
798.50,0.015
799.00,0.017
799.50,0.006
800.00,0.006
