"Storage 212952 - RawData - C:\Documents and Settings\uvvis\Desktop\w\File_260418_212952.spc"
"Wavelength nm.","Abs."
200.00,0.024
200.50,0.025
201.00,-0.000
201.50,-0.016
202.00,-0.028
202.50,-0.014
203.00,0.022
203.50,-0.002
204.00,-0.004
204.50,0.014
205.00,-0.012
205.50,-0.008
206.00,0.021
206.50,0.027
207.00,0.025
207.50,0.017
208.00,0.002
208.50,0.027
209.00,0.026
209.50,0.024
210.00,0.027
210.50,0.005
211.00,0.021
211.50,0.001
212.00,0.022
212.50,0.001
213.00,0.005
213.50,0.008
214.00,-0.003
214.50,0.000
215.00,0.021
215.50,0.006
216.00,0.010
216.50,0.008
217.00,0.004
217.50,0.021
218.00,-0.017
218.50,0.003
219.00,-0.008
219.50,0.015
220.00,0.011
220.50,-0.010
221.00,0.001
221.50,-0.005
222.00,0.023
222.50,0.021
223.00,0.009
223.50,0.021
224.00,0.019
224.50,0.009
225.00,-0.003
225.50,0.003
226.00,0.006
226.50,0.003
227.00,0.020
227.50,0.019
228.00,0.013
228.50,0.006
229.00,0.013
229.50,0.019
230.00,0.011
230.50,0.003
231.00,0.005
231.50,0.006
232.00,0.008
232.50,0.006
233.00,-0.002
233.50,0.002
234.00,-0.011
234.50,-0.002
235.00,0.008
235.50,-0.010
236.00,0.007
236.50,0.014
237.00,0.008
237.50,0.004
238.00,0.009
238.50,0.027
239.00,0.009
239.50,-0.003
240.00,-0.005
240.50,0.007
241.00,0.011
241.50,0.002
242.00,0.003
242.50,0.011
243.00,0.006
243.50,0.009
244.00,0.005
244.50,0.009
245.00,0.001
245.50,0.007
246.00,0.001
246.50,0.004
247.00,0.003
247.50,0.007
248.00,0.011
248.50,0.009
249.00,0.010
249.50,0.009
250.00,0.009
250.50,0.007
251.00,0.001
251.50,-0.005
252.00,0.011
252.50,0.005
253.00,0.006
253.50,0.012
254.00,0.004
254.50,0.002
255.00,-0.011
255.50,-0.004
256.00,0.000
256.50,0.012
257.00,0.001
257.50,0.011
258.00,0.013
258.50,0.006
259.00,0.015
259.50,0.006
260.00,0.009
260.50,-0.001
261.00,0.011
261.50,0.006
262.00,0.007
262.50,0.012
263.00,0.014
263.50,0.011
264.00,0.001
264.50,-0.007
265.00,-0.002
265.50,0.008
266.00,0.011
266.50,0.014
267.00,0.015
267.50,0.017
268.00,-0.002
268.50,-0.003
269.00,0.001
269.50,0.003
270.00,0.006
270.50,-0.000
271.00,0.006
271.50,-0.001
272.00,-0.004
272.50,0.016
273.00,0.002
273.50,0.004
274.00,0.010
274.50,0.012
275.00,0.001
275.50,-0.009
276.00,0.013
276.50,0.003
277.00,0.007
277.50,0.004
278.00,0.003
278.50,0.001
279.00,0.003
279.50,-0.001
280.00,-0.001
280.50,-0.007
281.00,-0.005
281.50,0.004
282.00,0.000
282.50,-0.004
283.00,0.003
283.50,0.008
284.00,0.010
284.50,0.011
285.00,-0.000
285.50,0.007
286.00,0.018
286.50,0.014
287.00,0.017
287.50,0.016
288.00,0.011
288.50,0.007
289.00,0.008
289.50,0.005
290.00,0.005
290.50,0.007
291.00,0.018
291.50,0.007
292.00,0.009
292.50,0.007
293.00,0.006
293.50,0.006
294.00,0.006
294.50,0.011
295.00,0.015
295.50,0.007
296.00,0.006
296.50,0.002
297.00,0.000
297.50,0.004
298.00,0.001
298.50,0.011
299.00,0.010
299.50,0.021
300.00,0.003
300.50,-0.001
301.00,0.016
301.50,0.008
302.00,0.013
302.50,-0.004
303.00,0.004
303.50,0.013
304.00,-0.002
304.50,-0.003
305.00,0.005
305.50,0.006
306.00,0.013
306.50,0.016
307.00,0.010
307.50,-0.000
308.00,0.011
308.50,-0.003
309.00,0.012
309.50,0.011
310.00,0.028
310.50,0.019
311.00,0.001
311.50,0.004
312.00,-0.002
312.50,-0.002
313.00,0.017
313.50,0.021
314.00,0.010
314.50,0.005
315.00,0.002
315.50,-0.011
316.00,-0.006
316.50,0.013
317.00,-0.006
317.50,-0.002
318.00,0.017
318.50,0.011
319.00,-0.003
319.50,0.004
320.00,0.005
320.50,0.000
321.00,-0.009
321.50,0.009
322.00,0.008
322.50,0.004
323.00,0.008
323.50,0.017
324.00,0.009
324.50,0.022
325.00,0.022
325.50,0.008
326.00,-0.000
326.50,0.003
327.00,0.007
327.50,0.016
328.00,0.021
328.50,0.009
329.00,-0.000
329.50,0.028
330.00,0.036
330.50,0.016
331.00,0.020
331.50,0.031
332.00,0.021
332.50,0.011
333.00,0.006
333.50,0.025
334.00,0.000
334.50,0.012
335.00,-0.001
335.50,0.004
336.00,0.000
336.50,0.007
337.00,0.015
337.50,-0.002
338.00,0.003
338.50,0.004
339.00,0.012
339.50,-0.014
340.00,-0.006
340.50,0.008
341.00,0.001
341.50,0.001
342.00,-0.005
342.50,0.005
343.00,-0.005
343.50,0.000
344.00,0.009
344.50,0.009
345.00,0.011
345.50,0.008
346.00,0.004
346.50,0.000
347.00,0.002
347.50,0.013
348.00,0.006
348.50,0.005
349.00,0.009
349.50,-0.002
350.00,0.002
350.50,-0.000
351.00,0.009
351.50,0.012
352.00,0.017
352.50,0.018
353.00,0.010
353.50,0.008
354.00,0.019
354.50,0.011
355.00,0.006
355.50,0.015
356.00,0.013
356.50,0.000
357.00,-0.005
357.50,-0.002
358.00,0.001
358.50,0.002
359.00,0.003
359.50,0.005
360.00,0.010
360.50,-0.002
361.00,0.009
361.50,0.005
362.00,0.006
362.50,0.007
363.00,0.005
363.50,-0.005
364.00,0.007
364.50,-0.005
365.00,0.012
365.50,0.005
366.00,0.002
366.50,0.003
367.00,-0.005
367.50,0.009
368.00,0.008
368.50,0.006
369.00,0.012
369.50,0.005
370.00,0.007
370.50,0.012
371.00,0.002
371.50,0.004
372.00,0.015
372.50,0.010
373.00,0.008
373.50,0.008
374.00,0.011
374.50,0.021
375.00,0.013
375.50,0.005
376.00,0.001
376.50,-0.001
377.00,0.001
377.50,0.010
378.00,0.014
378.50,0.013
379.00,0.013
379.50,0.006
380.00,0.006
380.50,0.007
381.00,0.008
381.50,0.000
382.00,0.008
382.50,0.010
383.00,0.008
383.50,0.001
384.00,0.005
384.50,0.007
385.00,0.009
385.50,0.015
386.00,0.004
386.50,0.003
387.00,0.006
387.50,0.005
388.00,0.003
388.50,0.008
389.00,0.009
389.50,0.002
390.00,0.007
390.50,0.005
391.00,0.010
391.50,0.009
392.00,0.010
392.50,0.005
393.00,0.004
393.50,0.007
394.00,0.010
394.50,0.010
395.00,0.009
395.50,0.014
396.00,0.007
396.50,0.009
397.00,0.007
397.50,0.003
398.00,0.006
398.50,0.005
399.00,0.001
399.50,0.010
400.00,0.012
400.50,0.014
401.00,0.010
401.50,0.010
402.00,0.010
402.50,0.011
403.00,0.007
403.50,0.003
404.00,0.010
404.50,0.008
405.00,0.002
405.50,0.006
406.00,0.007
406.50,0.008
407.00,0.008
407.50,0.011
408.00,0.010
408.50,0.005
409.00,0.006
409.50,0.009
410.00,0.005
410.50,0.015
411.00,0.012
411.50,0.012
412.00,0.005
412.50,0.007
413.00,-0.001
413.50,0.005
414.00,0.007
414.50,0.013
415.00,0.012
415.50,0.011
416.00,0.012
416.50,0.004
417.00,0.006
417.50,0.009
418.00,0.015
418.50,0.008
419.00,0.005
419.50,0.008
420.00,0.006
420.50,0.006
421.00,0.006
421.50,0.011
422.00,0.006
422.50,0.010
423.00,0.006
423.50,0.007
424.00,0.004
424.50,0.005
425.00,0.003
425.50,0.009
426.00,0.005
426.50,0.006
427.00,0.006
427.50,0.004
428.00,0.009
428.50,0.008
429.00,0.000
429.50,0.005
430.00,0.006
430.50,0.006
431.00,0.010
431.50,0.004
432.00,0.006
432.50,0.008
433.00,0.006
433.50,0.010
434.00,0.011
434.50,0.004
435.00,0.006
435.50,0.006
436.00,0.006
436.50,0.002
437.00,0.003
437.50,0.002
438.00,0.008
438.50,0.003
439.00,0.001
439.50,0.003
440.00,0.005
440.50,0.010
441.00,0.008
441.50,0.010
442.00,0.006
442.50,0.010
443.00,0.009
443.50,0.009
444.00,0.005
444.50,0.009
445.00,0.009
445.50,0.008
446.00,0.012
446.50,0.011
447.00,0.007
447.50,0.008
448.00,0.006
448.50,0.009
449.00,0.007
449.50,0.007
450.00,0.008
450.50,0.010
451.00,0.008
451.50,0.004
452.00,0.009
452.50,0.007
453.00,0.006
453.50,0.008
454.00,0.007
454.50,0.007
455.00,0.006
455.50,0.011
456.00,0.009
456.50,0.012
457.00,0.009
457.50,0.012
458.00,0.011
458.50,0.011
459.00,0.007
459.50,0.002
460.00,0.008
460.50,0.006
461.00,0.010
461.50,0.007
462.00,0.004
462.50,0.003
463.00,0.005
463.50,0.007
464.00,0.005
464.50,0.007
465.00,0.002
465.50,0.003
466.00,0.005
466.50,0.006
467.00,0.006
467.50,0.011
468.00,0.006
468.50,0.003
469.00,0.005
469.50,0.009
470.00,0.004
470.50,0.004
471.00,0.004
471.50,0.006
472.00,0.005
472.50,0.008
473.00,0.008
473.50,0.011
474.00,0.010
474.50,0.005
475.00,0.002
475.50,0.005
476.00,0.005
476.50,0.009
477.00,0.003
477.50,0.005
478.00,0.008
478.50,0.004
479.00,0.011
479.50,0.006
480.00,0.008
480.50,0.006
481.00,0.009
481.50,0.008
482.00,0.006
482.50,0.008
483.00,0.003
483.50,0.011
484.00,0.011
484.50,0.006
485.00,0.011
485.50,0.009
486.00,0.007
486.50,0.012
487.00,0.008
487.50,0.006
488.00,0.005
488.50,0.006
489.00,0.008
489.50,0.010
490.00,0.009
490.50,0.009
491.00,0.008
491.50,0.009
492.00,0.011
492.50,0.010
493.00,0.007
493.50,0.008
494.00,0.010
494.50,0.007
495.00,0.007
495.50,0.004
496.00,0.003
496.50,0.003
497.00,0.001
497.50,0.003
498.00,0.007
498.50,0.006
499.00,0.004
499.50,0.008
500.00,0.009
500.50,0.004
501.00,0.010
501.50,0.008
502.00,0.007
502.50,0.006
503.00,0.009
503.50,0.011
504.00,0.013
504.50,0.010
505.00,0.009
505.50,0.008
506.00,0.007
506.50,0.006
507.00,0.007
507.50,0.005
508.00,0.007
508.50,0.007
509.00,0.004
509.50,0.008
510.00,0.005
510.50,0.011
511.00,0.004
511.50,0.010
512.00,0.009
512.50,0.010
513.00,0.010
513.50,0.009
514.00,0.009
514.50,0.007
515.00,0.003
515.50,0.005
516.00,0.005
516.50,0.010
517.00,0.010
517.50,0.010
518.00,0.011
518.50,0.013
519.00,0.012
519.50,0.009
520.00,0.007
520.50,0.003
521.00,0.004
521.50,0.010
522.00,0.010
522.50,0.011
523.00,0.007
523.50,0.009
524.00,0.006
524.50,0.009
525.00,0.007
525.50,0.011
526.00,0.007
526.50,0.004
527.00,0.008
527.50,0.008
528.00,0.009
528.50,0.008
529.00,0.007
529.50,0.006
530.00,0.007
530.50,0.003
531.00,0.008
531.50,0.006
532.00,0.005
532.50,0.009
533.00,0.006
533.50,0.008
534.00,0.007
534.50,0.008
535.00,0.010
535.50,0.007
536.00,0.006
536.50,0.006
537.00,0.008
537.50,0.007
538.00,0.008
538.50,0.007
539.00,0.009
539.50,0.008
540.00,0.007
540.50,0.005
541.00,0.008
541.50,0.005
542.00,0.005
542.50,0.007
543.00,0.004
543.50,0.005
544.00,0.005
544.50,0.008
545.00,0.006
545.50,0.006
546.00,0.009
546.50,0.007
547.00,0.008
547.50,0.006
548.00,0.008
548.50,0.008
549.00,0.008
549.50,0.011
550.00,0.013
550.50,0.010
551.00,0.009
551.50,0.007
552.00,0.006
552.50,0.007
553.00,0.008
553.50,0.008
554.00,0.007
554.50,0.009
555.00,0.007
555.50,0.004
556.00,0.006
556.50,0.007
557.00,0.009
557.50,0.008
558.00,0.006
558.50,0.005
559.00,0.007
559.50,0.006
560.00,0.006
560.50,0.006
561.00,0.008
561.50,0.007
562.00,0.007
562.50,0.004
563.00,0.006
563.50,0.004
564.00,0.008
564.50,0.007
565.00,0.006
565.50,0.005
566.00,0.007
566.50,0.005
567.00,0.005
567.50,0.006
568.00,0.007
568.50,0.007
569.00,0.006
569.50,0.004
570.00,0.004
570.50,0.007
571.00,0.005
571.50,0.009
572.00,0.010
572.50,0.008
573.00,0.010
573.50,0.007
574.00,0.007
574.50,0.006
575.00,0.005
575.50,0.006
576.00,0.006
576.50,0.007
577.00,0.006
577.50,0.005
578.00,0.005
578.50,0.006
579.00,0.005
579.50,0.006
580.00,0.006
580.50,0.009
581.00,0.008
581.50,0.004
582.00,0.006
582.50,0.008
583.00,0.006
583.50,0.005
584.00,0.003
584.50,0.006
585.00,0.005
585.50,0.003
586.00,0.005
586.50,0.004
587.00,0.007
587.50,0.007
588.00,0.003
588.50,0.003
589.00,0.009
589.50,0.007
590.00,0.006
590.50,0.007
591.00,0.007
591.50,0.004
592.00,0.003
592.50,0.008
593.00,0.004
593.50,0.006
594.00,0.008
594.50,0.009
595.00,0.010
595.50,0.009
596.00,0.010
596.50,0.007
597.00,0.007
597.50,0.007
598.00,0.007
598.50,0.009
599.00,0.009
599.50,0.008
600.00,0.003
600.50,0.003
601.00,0.009
601.50,0.008
602.00,0.006
602.50,0.005
603.00,0.007
603.50,0.004
604.00,0.006
604.50,0.006
605.00,0.012
605.50,0.009
606.00,0.005
606.50,0.006
607.00,0.008
607.50,0.005
608.00,0.005
608.50,0.006
609.00,0.006
609.50,0.009
610.00,0.005
610.50,0.008
611.00,0.005
611.50,0.005
612.00,0.005
612.50,0.008
613.00,0.008
613.50,0.010
614.00,0.006
614.50,0.006
615.00,0.010
615.50,0.009
616.00,0.010
616.50,0.007
617.00,0.007
617.50,0.006
618.00,0.009
618.50,0.013
619.00,0.014
619.50,0.013
620.00,0.008
620.50,0.006
621.00,0.008
621.50,0.006
622.00,0.005
622.50,0.005
623.00,0.007
623.50,0.003
624.00,0.007
624.50,0.008
625.00,0.012
625.50,0.009
626.00,0.009
626.50,0.010
627.00,0.008
627.50,0.007
628.00,0.007
628.50,0.011
629.00,0.010
629.50,0.011
630.00,0.010
630.50,0.005
631.00,0.005
631.50,0.007
632.00,0.003
632.50,0.007
633.00,0.006
633.50,0.005
634.00,0.007
634.50,0.005
635.00,0.009
635.50,0.011
636.00,0.011
636.50,0.011
637.00,0.010
637.50,0.007
638.00,0.006
638.50,0.008
639.00,0.005
639.50,0.006
640.00,0.005
640.50,0.005
641.00,0.002
641.50,0.008
642.00,0.005
642.50,0.006
643.00,0.007
643.50,0.005
644.00,0.002
644.50,0.003
645.00,0.007
645.50,0.010
646.00,0.007
646.50,0.007
647.00,0.006
647.50,0.005
648.00,0.009
648.50,0.007
649.00,0.006
649.50,0.007
650.00,0.008
650.50,0.010
651.00,0.003
651.50,0.007
652.00,0.005
652.50,0.008
653.00,0.009
653.50,0.010
654.00,0.006
654.50,0.008
655.00,0.013
655.50,0.008
656.00,0.008
656.50,0.005
657.00,0.003
657.50,0.008
658.00,0.011
658.50,0.009
659.00,0.008
659.50,0.007
660.00,0.003
660.50,0.009
661.00,0.005
661.50,0.003
662.00,0.010
662.50,0.009
663.00,0.006
663.50,0.005
664.00,0.006
664.50,0.006
665.00,0.008
665.50,0.009
666.00,0.010
666.50,0.009
667.00,0.011
667.50,0.007
668.00,0.007
668.50,0.006
669.00,0.010
669.50,0.006
670.00,0.007
670.50,0.007
671.00,0.008
671.50,0.009
672.00,0.001
672.50,-0.000
673.00,0.005
673.50,0.010
674.00,0.009
674.50,0.006
675.00,0.007
675.50,0.008
676.00,0.009
676.50,0.006
677.00,0.001
677.50,0.002
678.00,0.005
678.50,0.003
679.00,0.008
679.50,0.012
680.00,0.013
680.50,0.011
681.00,0.011
681.50,0.008
682.00,0.011
682.50,0.005
683.00,0.004
683.50,0.000
684.00,0.008
684.50,0.008
685.00,0.008
685.50,0.009
686.00,0.005
686.50,0.005
687.00,0.005
687.50,0.008
688.00,0.010
688.50,0.012
689.00,0.016
689.50,0.015
690.00,0.012
690.50,0.008
691.00,0.006
691.50,0.003
692.00,0.007
692.50,0.012
693.00,0.013
693.50,0.007
694.00,0.003
694.50,0.005
695.00,0.003
695.50,0.003
696.00,0.004
696.50,0.011
697.00,0.009
697.50,0.005
698.00,0.007
698.50,0.012
699.00,0.010
699.50,0.007
700.00,0.008
700.50,0.008
701.00,0.011
701.50,0.008
702.00,0.009
702.50,0.008
703.00,0.004
703.50,-0.001
704.00,0.004
704.50,0.002
705.00,0.006
705.50,0.002
706.00,0.006
706.50,0.001
707.00,0.004
707.50,0.009
708.00,0.011
708.50,0.004
709.00,0.007
709.50,0.008
710.00,0.001
710.50,0.002
711.00,0.006
711.50,0.015
712.00,0.016
712.50,0.008
713.00,0.007
713.50,0.004
714.00,0.001
714.50,0.007
715.00,0.007
715.50,0.009
716.00,0.004
716.50,0.008
717.00,0.009
717.50,0.013
718.00,0.008
718.50,0.014
719.00,0.018
719.50,0.014
720.00,0.011
720.50,0.009
721.00,0.006
721.50,0.003
722.00,-0.003
722.50,0.005
723.00,0.010
723.50,0.005
724.00,0.004
724.50,0.003
725.00,0.007
725.50,0.007
726.00,0.009
726.50,0.010
727.00,0.009
727.50,0.008
728.00,0.008
728.50,0.009
729.00,0.008
729.50,0.012
730.00,0.010
730.50,0.011
731.00,0.011
731.50,0.010
732.00,0.003
732.50,0.005
733.00,0.001
733.50,0.003
734.00,0.009
734.50,0.009
735.00,0.002
735.50,0.007
736.00,0.007
736.50,0.001
737.00,0.009
737.50,0.005
738.00,0.011
738.50,0.009
739.00,0.000
739.50,0.006
740.00,0.004
740.50,0.007
741.00,0.011
741.50,0.002
742.00,0.004
742.50,0.001
743.00,0.002
743.50,0.006
744.00,0.014
744.50,0.006
745.00,0.008
745.50,0.002
746.00,0.007
746.50,0.010
747.00,0.008
747.50,0.002
748.00,0.008
748.50,0.011
749.00,0.003
749.50,0.002
750.00,-0.001
750.50,0.007
751.00,0.012
751.50,0.003
752.00,0.010
752.50,0.012
753.00,0.004
753.50,0.009
754.00,0.007
754.50,-0.001
755.00,0.001
755.50,0.001
756.00,0.002
756.50,0.007
757.00,0.006
757.50,0.009
758.00,0.008
758.50,0.014
759.00,0.009
759.50,0.007
760.00,0.002
760.50,-0.004
761.00,0.001
761.50,0.013
762.00,0.005
762.50,0.005
763.00,0.009
763.50,0.006
764.00,0.010
764.50,0.011
765.00,0.006
765.50,0.004
766.00,0.006
766.50,0.007
767.00,0.007
767.50,0.015
768.00,0.005
768.50,0.007
769.00,0.001
769.50,0.007
770.00,0.003
770.50,0.005
771.00,-0.000
771.50,-0.001
772.00,-0.000
772.50,0.002
773.00,0.014
773.50,0.011
774.00,0.005
774.50,0.009
775.00,0.010
775.50,0.009
776.00,0.003
776.50,0.009
777.00,0.013
777.50,0.006
778.00,0.011
778.50,0.003
779.00,0.006
779.50,0.005
780.00,0.011
780.50,0.015
781.00,0.010
781.50,0.012
782.00,0.009
782.50,0.011
783.00,0.003
783.50,0.006
784.00,0.004
784.50,0.002
785.00,0.007
785.50,0.004
786.00,0.005
786.50,0.003
787.00,0.007
787.50,0.009
788.00,0.011
788.50,0.005
789.00,0.010
789.50,0.002
790.00,-0.000
790.50,0.013
791.00,0.009
791.50,0.005
792.00,0.006
792.50,0.002
793.00,0.002
793.50,0.009
794.00,0.009
794.50,0.001
795.00,0.003
795.50,-0.004
796.00,-0.005
796.50,0.003
797.00,0.012
797.50,0.013
798.00,0.003
798.50,0.009
799.00,0.009
799.50,-0.002
800.00,-0.007
