"Storage 215312 - RawData - C:\Documents and Settings\uvvis\Desktop\w\File_260418_215312.spc"
"Wavelength nm.","Abs."
200.00,0.966
200.50,0.923
201.00,0.906
201.50,0.874
202.00,0.866
202.50,0.837
203.00,0.757
203.50,0.807
204.00,0.790
204.50,0.757
205.00,0.761
205.50,0.808
206.00,0.775
206.50,0.748
207.00,0.721
207.50,0.694
208.00,0.707
208.50,0.740
209.00,0.718
209.50,0.714
210.00,0.650
210.50,0.632
211.00,0.661
211.50,0.638
212.00,0.624
212.50,0.631
213.00,0.595
213.50,0.589
214.00,0.555
214.50,0.548
215.00,0.514
215.50,0.480
216.00,0.506
216.50,0.474
217.00,0.448
217.50,0.425
218.00,0.434
218.50,0.448
219.00,0.443
219.50,0.416
220.00,0.404
220.50,0.375
221.00,0.384
221.50,0.366
222.00,0.366
222.50,0.354
223.00,0.366
223.50,0.345
224.00,0.332
224.50,0.323
225.00,0.309
225.50,0.297
226.00,0.284
226.50,0.276
227.00,0.268
227.50,0.279
228.00,0.264
228.50,0.250
229.00,0.233
229.50,0.230
230.00,0.212
230.50,0.234
231.00,0.229
231.50,0.225
232.00,0.220
232.50,0.208
233.00,0.209
233.50,0.198
234.00,0.207
234.50,0.192
235.00,0.186
235.50,0.199
236.00,0.194
236.50,0.202
237.00,0.215
237.50,0.201
238.00,0.211
238.50,0.214
239.00,0.225
239.50,0.211
240.00,0.218
240.50,0.223
241.00,0.241
241.50,0.224
242.00,0.239
242.50,0.244
243.00,0.239
243.50,0.250
244.00,0.258
244.50,0.253
245.00,0.244
245.50,0.246
246.00,0.250
246.50,0.257
247.00,0.267
247.50,0.268
248.00,0.281
248.50,0.279
249.00,0.281
249.50,0.272
250.00,0.270
250.50,0.271
251.00,0.266
251.50,0.259
252.00,0.263
252.50,0.254
253.00,0.245
253.50,0.244
254.00,0.231
254.50,0.226
255.00,0.206
255.50,0.208
256.00,0.189
256.50,0.165
257.00,0.156
257.50,0.161
258.00,0.139
258.50,0.120
259.00,0.115
259.50,0.109
260.00,0.102
260.50,0.107
261.00,0.088
261.50,0.086
262.00,0.083
262.50,0.072
263.00,0.082
263.50,0.076
264.00,0.068
264.50,0.059
265.00,0.067
265.50,0.084
266.00,0.064
266.50,0.074
267.00,0.077
267.50,0.076
268.00,0.070
268.50,0.071
269.00,0.071
269.50,0.069
270.00,0.087
270.50,0.084
271.00,0.087
271.50,0.082
272.00,0.088
272.50,0.096
273.00,0.088
273.50,0.090
274.00,0.093
274.50,0.085
275.00,0.085
275.50,0.094
276.00,0.098
276.50,0.103
277.00,0.098
277.50,0.097
278.00,0.094
278.50,0.103
279.00,0.102
279.50,0.099
280.00,0.105
280.50,0.106
281.00,0.099
281.50,0.105
282.00,0.101
282.50,0.104
283.00,0.100
283.50,0.100
284.00,0.106
284.50,0.101
285.00,0.098
285.50,0.114
286.00,0.101
286.50,0.105
287.00,0.101
287.50,0.104
288.00,0.097
288.50,0.092
289.00,0.090
289.50,0.093
290.00,0.098
290.50,0.095
291.00,0.100
291.50,0.114
292.00,0.082
292.50,0.082
293.00,0.098
293.50,0.085
294.00,0.082
294.50,0.096
295.00,0.089
295.50,0.091
296.00,0.063
296.50,0.078
297.00,0.066
297.50,0.078
298.00,0.076
298.50,0.072
299.00,0.074
299.50,0.069
300.00,0.061
300.50,0.070
301.00,0.052
301.50,0.062
302.00,0.059
302.50,0.069
303.00,0.069
303.50,0.071
304.00,0.065
304.50,0.062
305.00,0.066
305.50,0.065
306.00,0.069
306.50,0.073
307.00,0.047
307.50,0.062
308.00,0.056
308.50,0.054
309.00,0.062
309.50,0.067
310.00,0.060
310.50,0.069
311.00,0.069
311.50,0.059
312.00,0.067
312.50,0.047
313.00,0.056
313.50,0.058
314.00,0.050
314.50,0.063
315.00,0.041
315.50,0.035
316.00,0.046
316.50,0.040
317.00,0.043
317.50,0.052
318.00,0.051
318.50,0.060
319.00,0.057
319.50,0.040
320.00,0.043
320.50,0.062
321.00,0.049
321.50,0.063
322.00,0.049
322.50,0.059
323.00,0.051
323.50,0.042
324.00,0.071
324.50,0.060
325.00,0.052
325.50,0.060
326.00,0.049
326.50,0.052
327.00,0.058
327.50,0.050
328.00,0.069
328.50,0.071
329.00,0.065
329.50,0.059
330.00,0.056
330.50,0.080
331.00,0.057
331.50,0.064
332.00,0.074
332.50,0.066
333.00,0.074
333.50,0.072
334.00,0.056
334.50,0.032
335.00,0.050
335.50,0.058
336.00,0.069
336.50,0.044
337.00,0.052
337.50,0.036
338.00,0.049
338.50,0.044
339.00,0.055
339.50,0.061
340.00,0.061
340.50,0.056
341.00,0.047
341.50,0.058
342.00,0.054
342.50,0.056
343.00,0.055
343.50,0.057
344.00,0.064
344.50,0.061
345.00,0.052
345.50,0.048
346.00,0.064
346.50,0.045
347.00,0.048
347.50,0.063
348.00,0.055
348.50,0.048
349.00,0.051
349.50,0.048
350.00,0.042
350.50,0.054
351.00,0.057
351.50,0.058
352.00,0.061
352.50,0.053
353.00,0.052
353.50,0.044
354.00,0.048
354.50,0.048
355.00,0.061
355.50,0.059
356.00,0.046
356.50,0.042
357.00,0.046
357.50,0.036
358.00,0.036
358.50,0.032
359.00,0.041
359.50,0.045
360.00,0.048
360.50,0.042
361.00,0.038
361.50,0.045
362.00,0.046
362.50,0.049
363.00,0.034
363.50,0.044
364.00,0.026
364.50,0.033
365.00,0.031
365.50,0.042
366.00,0.033
366.50,0.033
367.00,0.038
367.50,0.033
368.00,0.032
368.50,0.024
369.00,0.030
369.50,0.026
370.00,0.033
370.50,0.034
371.00,0.024
371.50,0.028
372.00,0.032
372.50,0.024
373.00,0.021
373.50,0.030
374.00,0.020
374.50,0.026
375.00,0.025
375.50,0.022
376.00,0.015
376.50,0.019
377.00,0.014
377.50,0.022
378.00,0.018
378.50,0.011
379.00,0.015
379.50,0.020
380.00,0.019
380.50,0.014
381.00,0.011
381.50,0.013
382.00,0.017
382.50,0.015
383.00,0.020
383.50,0.017
384.00,0.017
384.50,0.014
385.00,0.010
385.50,0.012
386.00,0.020
386.50,0.011
387.00,0.010
387.50,0.009
388.00,0.011
388.50,0.010
389.00,0.010
389.50,0.014
390.00,0.012
390.50,0.005
391.00,0.006
391.50,0.005
392.00,0.018
392.50,0.010
393.00,0.009
393.50,0.016
394.00,0.012
394.50,0.009
395.00,0.010
395.50,0.008
396.00,0.015
396.50,0.010
397.00,0.006
397.50,0.007
398.00,0.019
398.50,0.010
399.00,0.009
399.50,0.007
400.00,0.007
400.50,0.012
401.00,0.013
401.50,0.010
402.00,0.007
402.50,0.008
403.00,0.009
403.50,0.009
404.00,0.011
404.50,0.008
405.00,0.008
405.50,0.006
406.00,0.004
406.50,0.009
407.00,0.004
407.50,0.009
408.00,0.010
408.50,0.007
409.00,0.008
409.50,0.008
410.00,0.011
410.50,0.015
411.00,0.020
411.50,0.017
412.00,0.011
412.50,0.008
413.00,0.008
413.50,0.009
414.00,0.008
414.50,0.011
415.00,0.017
415.50,0.011
416.00,0.008
416.50,0.007
417.00,0.010
417.50,0.009
418.00,0.010
418.50,0.012
419.00,0.006
419.50,0.012
420.00,0.008
420.50,0.014
421.00,0.011
421.50,0.010
422.00,0.010
422.50,0.012
423.00,0.013
423.50,0.009
424.00,0.005
424.50,0.007
425.00,0.003
425.50,0.006
426.00,0.007
426.50,0.010
427.00,0.009
427.50,0.006
428.00,0.009
428.50,0.007
429.00,0.009
429.50,0.004
430.00,0.007
430.50,0.004
431.00,0.007
431.50,0.005
432.00,0.009
432.50,0.009
433.00,0.013
433.50,0.017
434.00,0.008
434.50,0.008
435.00,0.008
435.50,0.006
436.00,0.003
436.50,0.006
437.00,0.006
437.50,0.006
438.00,0.005
438.50,0.009
439.00,0.007
439.50,0.009
440.00,0.009
440.50,0.009
441.00,0.014
441.50,0.015
442.00,0.015
442.50,0.011
443.00,0.007
443.50,0.005
444.00,0.011
444.50,0.011
445.00,0.011
445.50,0.011
446.00,0.011
446.50,0.008
447.00,0.011
447.50,0.012
448.00,0.010
448.50,0.009
449.00,0.009
449.50,0.008
450.00,0.008
450.50,0.007
451.00,0.010
451.50,0.007
452.00,0.007
452.50,0.011
453.00,0.009
453.50,0.008
454.00,0.007
454.50,0.007
455.00,0.005
455.50,0.007
456.00,0.010
456.50,0.011
457.00,0.008
457.50,0.011
458.00,0.007
458.50,0.009
459.00,0.007
459.50,0.008
460.00,0.006
460.50,0.005
461.00,0.008
461.50,0.009
462.00,0.007
462.50,0.008
463.00,0.011
463.50,0.006
464.00,0.009
464.50,0.013
465.00,0.012
465.50,0.008
466.00,0.007
466.50,0.011
467.00,0.011
467.50,0.009
468.00,0.006
468.50,0.009
469.00,0.008
469.50,0.009
470.00,0.009
470.50,0.012
471.00,0.009
471.50,0.008
472.00,0.008
472.50,0.009
473.00,0.009
473.50,0.010
474.00,0.011
474.50,0.008
475.00,0.008
475.50,0.008
476.00,0.007
476.50,0.011
477.00,0.003
477.50,0.009
478.00,0.008
478.50,0.008
479.00,0.013
479.50,0.007
480.00,0.009
480.50,0.008
481.00,0.010
481.50,0.009
482.00,0.007
482.50,0.004
483.00,0.002
483.50,0.008
484.00,0.008
484.50,0.006
485.00,0.009
485.50,0.014
486.00,0.011
486.50,0.012
487.00,0.009
487.50,0.007
488.00,0.009
488.50,0.013
489.00,0.010
489.50,0.014
490.00,0.013
490.50,0.009
491.00,0.010
491.50,0.007
492.00,0.012
492.50,0.007
493.00,0.011
493.50,0.012
494.00,0.008
494.50,0.008
495.00,0.009
495.50,0.008
496.00,0.004
496.50,0.004
497.00,0.008
497.50,0.010
498.00,0.004
498.50,0.003
499.00,0.004
499.50,0.008
500.00,0.011
500.50,0.009
501.00,0.015
501.50,0.011
502.00,0.008
502.50,0.010
503.00,0.013
503.50,0.009
504.00,0.014
504.50,0.009
505.00,0.007
505.50,0.009
506.00,0.008
506.50,0.009
507.00,0.006
507.50,0.006
508.00,0.004
508.50,0.009
509.00,0.007
509.50,0.010
510.00,0.008
510.50,0.007
511.00,0.009
511.50,0.009
512.00,0.009
512.50,0.010
513.00,0.010
513.50,0.010
514.00,0.010
514.50,0.006
515.00,0.010
515.50,0.006
516.00,0.010
516.50,0.011
517.00,0.010
517.50,0.012
518.00,0.009
518.50,0.009
519.00,0.008
519.50,0.007
520.00,0.008
520.50,0.007
521.00,0.010
521.50,0.010
522.00,0.009
522.50,0.011
523.00,0.012
523.50,0.010
524.00,0.008
524.50,0.010
525.00,0.009
525.50,0.006
526.00,0.008
526.50,0.006
527.00,0.010
527.50,0.010
528.00,0.008
528.50,0.006
529.00,0.008
529.50,0.008
530.00,0.009
530.50,0.004
531.00,0.010
531.50,0.008
532.00,0.010
532.50,0.010
533.00,0.007
533.50,0.005
534.00,0.007
534.50,0.005
535.00,0.007
535.50,0.006
536.00,0.006
536.50,0.007
537.00,0.006
537.50,0.009
538.00,0.009
538.50,0.010
539.00,0.011
539.50,0.009
540.00,0.008
540.50,0.005
541.00,0.007
541.50,0.009
542.00,0.005
542.50,0.009
543.00,0.012
543.50,0.008
544.00,0.007
544.50,0.008
545.00,0.007
545.50,0.014
546.00,0.010
546.50,0.009
547.00,0.010
547.50,0.012
548.00,0.009
548.50,0.009
549.00,0.011
549.50,0.008
550.00,0.010
550.50,0.010
551.00,0.011
551.50,0.007
552.00,0.007
552.50,0.008
553.00,0.009
553.50,0.009
554.00,0.010
554.50,0.007
555.00,0.007
555.50,0.010
556.00,0.006
556.50,0.007
557.00,0.006
557.50,0.009
558.00,0.009
558.50,0.006
559.00,0.007
559.50,0.008
560.00,0.010
560.50,0.012
561.00,0.008
561.50,0.008
562.00,0.010
562.50,0.009
563.00,0.009
563.50,0.007
564.00,0.006
564.50,0.009
565.00,0.009
565.50,0.006
566.00,0.009
566.50,0.008
567.00,0.008
567.50,0.006
568.00,0.007
568.50,0.007
569.00,0.009
569.50,0.005
570.00,0.005
570.50,0.008
571.00,0.007
571.50,0.010
572.00,0.009
572.50,0.009
573.00,0.009
573.50,0.009
574.00,0.006
574.50,0.007
575.00,0.005
575.50,0.006
576.00,0.008
576.50,0.008
577.00,0.005
577.50,0.005
578.00,0.004
578.50,0.009
579.00,0.010
579.50,0.011
580.00,0.003
580.50,0.007
581.00,0.009
581.50,0.009
582.00,0.007
582.50,0.007
583.00,0.007
583.50,0.006
584.00,0.006
584.50,0.007
585.00,0.005
585.50,0.006
586.00,0.006
586.50,0.006
587.00,0.003
587.50,0.008
588.00,0.005
588.50,0.004
589.00,0.008
589.50,0.011
590.00,0.008
590.50,0.009
591.00,0.008
591.50,0.011
592.00,0.007
592.50,0.006
593.00,0.004
593.50,0.006
594.00,0.009
594.50,0.014
595.00,0.012
595.50,0.012
596.00,0.012
596.50,0.014
597.00,0.010
597.50,0.007
598.00,0.008
598.50,0.006
599.00,0.011
599.50,0.011
600.00,0.005
600.50,0.010
601.00,0.005
601.50,0.006
602.00,0.007
602.50,0.005
603.00,0.006
603.50,0.008
604.00,0.006
604.50,0.011
605.00,0.010
605.50,0.007
606.00,0.009
606.50,0.008
607.00,0.008
607.50,0.010
608.00,0.007
608.50,0.008
609.00,0.008
609.50,0.006
610.00,0.007
610.50,0.009
611.00,0.006
611.50,0.006
612.00,0.008
612.50,0.006
613.00,0.011
613.50,0.010
614.00,0.006
614.50,0.009
615.00,0.008
615.50,0.007
616.00,0.011
616.50,0.014
617.00,0.011
617.50,0.010
618.00,0.008
618.50,0.011
619.00,0.011
619.50,0.011
620.00,0.009
620.50,0.010
621.00,0.006
621.50,0.005
622.00,0.005
622.50,0.007
623.00,0.008
623.50,0.010
624.00,0.006
624.50,0.008
625.00,0.008
625.50,0.008
626.00,0.012
626.50,0.009
627.00,0.009
627.50,0.009
628.00,0.013
628.50,0.012
629.00,0.013
629.50,0.011
630.00,0.014
630.50,0.006
631.00,0.006
631.50,0.009
632.00,0.011
632.50,0.010
633.00,0.009
633.50,0.005
634.00,0.005
634.50,0.008
635.00,0.007
635.50,0.009
636.00,0.011
636.50,0.011
637.00,0.012
637.50,0.007
638.00,0.005
638.50,0.008
639.00,0.008
639.50,0.010
640.00,0.012
640.50,0.005
641.00,0.009
641.50,0.010
642.00,0.006
642.50,0.006
643.00,0.004
643.50,0.009
644.00,0.009
644.50,0.007
645.00,0.002
645.50,0.010
646.00,0.008
646.50,0.010
647.00,0.007
647.50,0.006
648.00,0.007
648.50,0.006
649.00,0.009
649.50,0.009
650.00,0.006
650.50,0.006
651.00,0.010
651.50,0.005
652.00,0.007
652.50,0.011
653.00,0.009
653.50,0.010
654.00,0.011
654.50,0.008
655.00,0.007
655.50,0.007
656.00,0.007
656.50,0.010
657.00,0.005
657.50,0.009
658.00,0.007
658.50,0.010
659.00,0.011
659.50,0.015
660.00,0.009
660.50,0.007
661.00,0.004
661.50,0.003
662.00,0.009
662.50,0.010
663.00,0.005
663.50,0.009
664.00,0.009
664.50,0.014
665.00,0.014
665.50,0.011
666.00,0.007
666.50,0.008
667.00,0.008
667.50,0.010
668.00,0.007
668.50,0.006
669.00,0.008
669.50,0.008
670.00,0.009
670.50,0.009
671.00,0.007
671.50,0.010
672.00,0.008
672.50,0.005
673.00,0.011
673.50,0.013
674.00,0.010
674.50,0.016
675.00,0.008
675.50,0.008
676.00,0.002
676.50,0.005
677.00,0.004
677.50,0.004
678.00,0.003
678.50,0.002
679.00,0.004
679.50,0.008
680.00,0.009
680.50,0.007
681.00,0.008
681.50,0.011
682.00,0.006
682.50,0.010
683.00,0.007
683.50,0.005
684.00,0.007
684.50,0.004
685.00,0.003
685.50,0.006
686.00,0.007
686.50,0.008
687.00,0.007
687.50,0.009
688.00,0.015
688.50,0.018
689.00,0.019
689.50,0.013
690.00,0.011
690.50,0.011
691.00,0.005
691.50,0.008
692.00,0.008
692.50,0.011
693.00,0.011
693.50,0.007
694.00,0.006
694.50,0.003
695.00,0.005
695.50,0.011
696.00,0.011
696.50,0.006
697.00,0.019
697.50,0.009
698.00,0.010
698.50,0.008
699.00,0.007
699.50,0.007
700.00,0.009
700.50,0.011
701.00,0.010
701.50,0.009
702.00,0.006
702.50,0.007
703.00,0.010
703.50,0.005
704.00,0.008
704.50,0.006
705.00,0.003
705.50,0.005
706.00,0.009
706.50,0.004
707.00,0.005
707.50,0.010
708.00,0.007
708.50,0.007
709.00,0.006
709.50,0.006
710.00,0.009
710.50,0.005
711.00,0.006
711.50,0.014
712.00,0.013
712.50,0.017
713.00,0.011
713.50,0.008
714.00,0.008
714.50,0.006
715.00,0.008
715.50,0.006
716.00,0.007
716.50,0.012
717.00,0.014
717.50,0.008
718.00,0.012
718.50,0.013
719.00,0.015
719.50,0.013
720.00,0.015
720.50,0.015
721.00,0.012
721.50,-0.001
722.00,0.004
722.50,0.005
723.00,0.012
723.50,0.004
724.00,0.006
724.50,0.006
725.00,0.009
725.50,0.011
726.00,0.010
726.50,0.005
727.00,0.009
727.50,0.005
728.00,0.010
728.50,0.010
729.00,0.009
729.50,0.011
730.00,0.009
730.50,0.010
731.00,0.015
731.50,0.015
732.00,0.007
732.50,0.005
733.00,0.007
733.50,0.007
734.00,0.004
734.50,0.005
735.00,0.002
735.50,0.005
736.00,0.005
736.50,0.007
737.00,0.017
737.50,0.016
738.00,0.007
738.50,0.009
739.00,0.001
739.50,0.009
740.00,0.009
740.50,0.017
741.00,0.009
741.50,0.011
742.00,0.004
742.50,0.007
743.00,0.014
743.50,0.014
744.00,0.016
744.50,0.008
745.00,0.010
745.50,0.009
746.00,0.013
746.50,0.012
747.00,0.012
747.50,0.014
748.00,0.011
748.50,0.005
749.00,0.006
749.50,0.011
750.00,0.010
750.50,0.003
751.00,0.017
751.50,0.014
752.00,0.006
752.50,0.011
753.00,0.011
753.50,0.011
754.00,0.013
754.50,0.012
755.00,0.012
755.50,0.010
756.00,0.005
756.50,0.007
757.00,0.006
757.50,0.015
758.00,0.010
758.50,0.019
759.00,0.014
759.50,0.006
760.00,0.002
760.50,-0.002
761.00,0.010
761.50,0.013
762.00,0.016
762.50,0.004
763.00,0.012
763.50,0.009
764.00,0.004
764.50,0.004
765.00,0.004
765.50,-0.000
766.00,0.012
766.50,0.013
767.00,0.004
767.50,0.004
768.00,0.006
768.50,0.017
769.00,0.009
769.50,-0.007
770.00,0.008
770.50,0.006
771.00,0.007
771.50,0.013
772.00,0.000
772.50,0.010
773.00,0.008
773.50,0.008
774.00,0.007
774.50,0.008
775.00,0.010
775.50,-0.003
776.00,-0.002
776.50,0.001
777.00,0.009
777.50,0.014
778.00,0.014
778.50,0.006
779.00,0.009
779.50,-0.001
780.00,0.009
780.50,0.007
781.00,0.007
781.50,0.013
782.00,0.008
782.50,-0.002
783.00,0.002
783.50,0.012
784.00,0.020
784.50,0.014
785.00,0.007
785.50,0.006
786.00,0.007
786.50,0.018
787.00,0.012
787.50,0.006
788.00,0.008
788.50,0.011
789.00,0.018
789.50,0.015
790.00,0.015
790.50,0.002
791.00,0.004
791.50,0.008
792.00,-0.000
792.50,0.003
793.00,-0.005
793.50,0.000
794.00,0.001
794.50,0.004
795.00,0.007
795.50,0.005
796.00,0.002
796.50,0.007
797.00,-0.004
797.50,0.011
798.00,0.009
798.50,0.011
799.00,0.004
799.50,-0.003
800.00,-0.001
