"Storage 215802 - RawData - C:\Documents and Settings\uvvis\Desktop\w\File_260418_215802.spc"
"Wavelength nm.","Abs."
200.00,1.037
200.50,1.073
201.00,0.979
201.50,1.015
202.00,0.948
202.50,0.909
203.00,0.955
203.50,0.941
204.00,0.877
204.50,0.960
205.00,0.977
205.50,0.920
206.00,0.894
206.50,0.913
207.00,0.887
207.50,0.917
208.00,0.864
208.50,0.876
209.00,0.837
209.50,0.830
210.00,0.789
210.50,0.781
211.00,0.787
211.50,0.751
212.00,0.778
212.50,0.715
213.00,0.697
213.50,0.648
214.00,0.649
214.50,0.660
215.00,0.623
215.50,0.619
216.00,0.581
216.50,0.579
217.00,0.541
217.50,0.542
218.00,0.536
218.50,0.514
219.00,0.478
219.50,0.464
220.00,0.479
220.50,0.454
221.00,0.470
221.50,0.443
222.00,0.420
222.50,0.416
223.00,0.413
223.50,0.393
224.00,0.385
224.50,0.366
225.00,0.341
225.50,0.321
226.00,0.333
226.50,0.326
227.00,0.333
227.50,0.321
228.00,0.300
228.50,0.291
229.00,0.270
229.50,0.265
230.00,0.261
230.50,0.264
231.00,0.265
231.50,0.253
232.00,0.247
232.50,0.252
233.00,0.234
233.50,0.224
234.00,0.224
234.50,0.229
235.00,0.240
235.50,0.243
236.00,0.240
236.50,0.243
237.00,0.247
237.50,0.247
238.00,0.252
238.50,0.252
239.00,0.259
239.50,0.260
240.00,0.265
240.50,0.266
241.00,0.249
241.50,0.271
242.00,0.276
242.50,0.271
243.00,0.274
243.50,0.289
244.00,0.288
244.50,0.290
245.00,0.309
245.50,0.300
246.00,0.304
246.50,0.321
247.00,0.316
247.50,0.324
248.00,0.343
248.50,0.327
249.00,0.327
249.50,0.328
250.00,0.325
250.50,0.318
251.00,0.312
251.50,0.311
252.00,0.300
252.50,0.303
253.00,0.291
253.50,0.293
254.00,0.280
254.50,0.270
255.00,0.259
255.50,0.226
256.00,0.219
256.50,0.204
257.00,0.197
257.50,0.187
258.00,0.155
258.50,0.162
259.00,0.142
259.50,0.141
260.00,0.128
260.50,0.113
261.00,0.110
261.50,0.103
262.00,0.097
262.50,0.098
263.00,0.088
263.50,0.080
264.00,0.086
264.50,0.085
265.00,0.075
265.50,0.088
266.00,0.089
266.50,0.084
267.00,0.077
267.50,0.083
268.00,0.086
268.50,0.089
269.00,0.087
269.50,0.088
270.00,0.079
270.50,0.091
271.00,0.098
271.50,0.096
272.00,0.085
272.50,0.102
273.00,0.107
273.50,0.106
274.00,0.111
274.50,0.105
275.00,0.102
275.50,0.110
276.00,0.105
276.50,0.108
277.00,0.119
277.50,0.112
278.00,0.117
278.50,0.119
279.00,0.116
279.50,0.111
280.00,0.110
280.50,0.115
281.00,0.125
281.50,0.109
282.00,0.125
282.50,0.115
283.00,0.112
283.50,0.116
284.00,0.118
284.50,0.103
285.00,0.112
285.50,0.120
286.00,0.116
286.50,0.128
287.00,0.128
287.50,0.125
288.00,0.108
288.50,0.108
289.00,0.114
289.50,0.110
290.00,0.115
290.50,0.118
291.00,0.112
291.50,0.109
292.00,0.116
292.50,0.092
293.00,0.112
293.50,0.106
294.00,0.114
294.50,0.095
295.00,0.103
295.50,0.088
296.00,0.098
296.50,0.099
297.00,0.094
297.50,0.104
298.00,0.085
298.50,0.084
299.00,0.084
299.50,0.080
300.00,0.073
300.50,0.071
301.00,0.076
301.50,0.070
302.00,0.075
302.50,0.068
303.00,0.060
303.50,0.070
304.00,0.076
304.50,0.078
305.00,0.069
305.50,0.071
306.00,0.081
306.50,0.076
307.00,0.061
307.50,0.065
308.00,0.077
308.50,0.072
309.00,0.063
309.50,0.061
310.00,0.079
310.50,0.074
311.00,0.076
311.50,0.072
312.00,0.048
312.50,0.066
313.00,0.072
313.50,0.066
314.00,0.062
314.50,0.068
315.00,0.036
315.50,0.052
316.00,0.058
316.50,0.046
317.00,0.051
317.50,0.055
318.00,0.052
318.50,0.060
319.00,0.066
319.50,0.047
320.00,0.047
320.50,0.056
321.00,0.049
321.50,0.062
322.00,0.061
322.50,0.059
323.00,0.050
323.50,0.054
324.00,0.059
324.50,0.054
325.00,0.064
325.50,0.059
326.00,0.072
326.50,0.053
327.00,0.057
327.50,0.091
328.00,0.075
328.50,0.074
329.00,0.074
329.50,0.078
330.00,0.079
330.50,0.064
331.00,0.063
331.50,0.069
332.00,0.083
332.50,0.069
333.00,0.054
333.50,0.058
334.00,0.071
334.50,0.067
335.00,0.048
335.50,0.052
336.00,0.069
336.50,0.059
337.00,0.071
337.50,0.056
338.00,0.062
338.50,0.054
339.00,0.058
339.50,0.068
340.00,0.066
340.50,0.058
341.00,0.055
341.50,0.052
342.00,0.055
342.50,0.063
343.00,0.054
343.50,0.061
344.00,0.072
344.50,0.060
345.00,0.063
345.50,0.052
346.00,0.059
346.50,0.061
347.00,0.052
347.50,0.064
348.00,0.072
348.50,0.067
349.00,0.070
349.50,0.068
350.00,0.057
350.50,0.050
351.00,0.065
351.50,0.065
352.00,0.068
352.50,0.054
353.00,0.057
353.50,0.060
354.00,0.053
354.50,0.065
355.00,0.062
355.50,0.071
356.00,0.048
356.50,0.049
357.00,0.055
357.50,0.057
358.00,0.048
358.50,0.048
359.00,0.049
359.50,0.042
360.00,0.048
360.50,0.040
361.00,0.049
361.50,0.051
362.00,0.045
362.50,0.042
363.00,0.042
363.50,0.046
364.00,0.035
364.50,0.046
365.00,0.039
365.50,0.038
366.00,0.038
366.50,0.029
367.00,0.041
367.50,0.041
368.00,0.041
368.50,0.038
369.00,0.035
369.50,0.040
370.00,0.033
370.50,0.033
371.00,0.029
371.50,0.030
372.00,0.027
372.50,0.024
373.00,0.020
373.50,0.020
374.00,0.027
374.50,0.031
375.00,0.026
375.50,0.022
376.00,0.011
376.50,0.014
377.00,0.017
377.50,0.015
378.00,0.021
378.50,0.020
379.00,0.021
379.50,0.018
380.00,0.023
380.50,0.022
381.00,0.019
381.50,0.014
382.00,0.017
382.50,0.016
383.00,0.013
383.50,0.011
384.00,0.018
384.50,0.015
385.00,0.018
385.50,0.020
386.00,0.014
386.50,0.015
387.00,0.014
387.50,0.013
388.00,0.021
388.50,0.011
389.00,0.015
389.50,0.012
390.00,0.011
390.50,0.011
391.00,0.014
391.50,0.008
392.00,0.012
392.50,0.005
393.00,0.016
393.50,0.020
394.00,0.015
394.50,0.007
395.00,0.008
395.50,0.007
396.00,0.012
396.50,0.008
397.00,0.008
397.50,0.007
398.00,0.014
398.50,0.010
399.00,0.011
399.50,0.013
400.00,0.016
400.50,0.014
401.00,0.012
401.50,0.007
402.00,0.010
402.50,0.012
403.00,0.009
403.50,0.016
404.00,0.014
404.50,0.006
405.00,0.011
405.50,0.005
406.00,0.006
406.50,0.010
407.00,0.013
407.50,0.013
408.00,0.010
408.50,0.009
409.00,0.008
409.50,0.005
410.00,0.007
410.50,0.012
411.00,0.008
411.50,0.012
412.00,0.004
412.50,0.008
413.00,0.006
413.50,0.011
414.00,0.006
414.50,0.012
415.00,0.012
415.50,0.006
416.00,0.008
416.50,0.012
417.00,0.005
417.50,0.014
418.00,0.011
418.50,0.007
419.00,0.001
419.50,0.004
420.00,0.006
420.50,0.008
421.00,0.008
421.50,0.007
422.00,0.007
422.50,0.008
423.00,0.005
423.50,0.004
424.00,0.001
424.50,0.005
425.00,0.005
425.50,0.004
426.00,0.009
426.50,0.011
427.00,0.006
427.50,0.006
428.00,0.003
428.50,0.006
429.00,0.007
429.50,0.008
430.00,0.006
430.50,0.005
431.00,0.002
431.50,0.005
432.00,0.005
432.50,0.007
433.00,0.007
433.50,0.007
434.00,0.011
434.50,0.005
435.00,0.007
435.50,0.005
436.00,0.008
436.50,0.004
437.00,-0.000
437.50,0.005
438.00,0.004
438.50,0.005
439.00,0.007
439.50,0.008
440.00,0.006
440.50,0.007
441.00,0.012
441.50,0.010
442.00,0.011
442.50,0.009
443.00,0.006
443.50,0.008
444.00,0.007
444.50,0.009
445.00,0.008
445.50,0.009
446.00,0.009
446.50,0.008
447.00,0.011
447.50,0.011
448.00,0.012
448.50,0.006
449.00,0.008
449.50,0.007
450.00,0.008
450.50,0.005
451.00,0.005
451.50,0.009
452.00,0.010
452.50,0.013
453.00,0.009
453.50,0.005
454.00,0.004
454.50,0.002
455.00,0.006
455.50,0.006
456.00,0.012
456.50,0.010
457.00,0.010
457.50,0.006
458.00,0.010
458.50,0.008
459.00,0.008
459.50,0.008
460.00,0.006
460.50,0.008
461.00,0.008
461.50,0.006
462.00,0.003
462.50,0.006
463.00,0.006
463.50,0.008
464.00,0.010
464.50,0.006
465.00,0.008
465.50,0.007
466.00,0.008
466.50,0.009
467.00,0.009
467.50,0.008
468.00,0.008
468.50,0.003
469.00,0.007
469.50,0.006
470.00,0.010
470.50,0.009
471.00,0.007
471.50,0.005
472.00,0.004
472.50,0.009
473.00,0.006
473.50,0.004
474.00,0.007
474.50,0.008
475.00,0.007
475.50,0.006
476.00,0.006
476.50,0.011
477.00,0.006
477.50,0.007
478.00,0.004
478.50,0.006
479.00,0.009
479.50,0.011
480.00,0.013
480.50,0.011
481.00,0.011
481.50,0.007
482.00,0.010
482.50,0.009
483.00,0.006
483.50,0.008
484.00,0.011
484.50,0.012
485.00,0.010
485.50,0.009
486.00,0.009
486.50,0.009
487.00,0.006
487.50,0.009
488.00,0.006
488.50,0.007
489.00,0.010
489.50,0.010
490.00,0.007
490.50,0.011
491.00,0.010
491.50,0.010
492.00,0.009
492.50,0.010
493.00,0.010
493.50,0.007
494.00,0.010
494.50,0.011
495.00,0.009
495.50,0.003
496.00,0.005
496.50,0.003
497.00,0.004
497.50,0.006
498.00,0.005
498.50,0.007
499.00,0.005
499.50,0.008
500.00,0.009
500.50,0.009
501.00,0.012
501.50,0.011
502.00,0.010
502.50,0.010
503.00,0.009
503.50,0.010
504.00,0.011
504.50,0.007
505.00,0.010
505.50,0.008
506.00,0.007
506.50,0.007
507.00,0.010
507.50,0.009
508.00,0.007
508.50,0.009
509.00,0.009
509.50,0.008
510.00,0.008
510.50,0.008
511.00,0.008
511.50,0.007
512.00,0.010
512.50,0.009
513.00,0.010
513.50,0.007
514.00,0.009
514.50,0.009
515.00,0.009
515.50,0.008
516.00,0.009
516.50,0.010
517.00,0.011
517.50,0.008
518.00,0.007
518.50,0.006
519.00,0.010
519.50,0.010
520.00,0.008
520.50,0.008
521.00,0.006
521.50,0.007
522.00,0.005
522.50,0.009
523.00,0.010
523.50,0.010
524.00,0.011
524.50,0.011
525.00,0.009
525.50,0.007
526.00,0.009
526.50,0.007
527.00,0.011
527.50,0.009
528.00,0.008
528.50,0.004
529.00,0.008
529.50,0.007
530.00,0.006
530.50,0.009
531.00,0.006
531.50,0.008
532.00,0.008
532.50,0.004
533.00,0.006
533.50,0.005
534.00,0.007
534.50,0.011
535.00,0.009
535.50,0.005
536.00,0.008
536.50,0.008
537.00,0.005
537.50,0.010
538.00,0.007
538.50,0.007
539.00,0.008
539.50,0.010
540.00,0.007
540.50,0.009
541.00,0.009
541.50,0.005
542.00,0.001
542.50,0.006
543.00,0.006
543.50,0.005
544.00,0.005
544.50,0.005
545.00,0.007
545.50,0.008
546.00,0.008
546.50,0.009
547.00,0.009
547.50,0.009
548.00,0.009
548.50,0.008
549.00,0.005
549.50,0.009
550.00,0.010
550.50,0.008
551.00,0.009
551.50,0.008
552.00,0.009
552.50,0.011
553.00,0.009
553.50,0.009
554.00,0.009
554.50,0.004
555.00,0.008
555.50,0.005
556.00,0.008
556.50,0.007
557.00,0.010
557.50,0.008
558.00,0.008
558.50,0.006
559.00,0.008
559.50,0.010
560.00,0.006
560.50,0.007
561.00,0.009
561.50,0.010
562.00,0.011
562.50,0.009
563.00,0.007
563.50,0.007
564.00,0.007
564.50,0.008
565.00,0.009
565.50,0.009
566.00,0.010
566.50,0.007
567.00,0.007
567.50,0.009
568.00,0.010
568.50,0.010
569.00,0.008
569.50,0.007
570.00,0.009
570.50,0.009
571.00,0.008
571.50,0.008
572.00,0.007
572.50,0.012
573.00,0.010
573.50,0.009
574.00,0.008
574.50,0.009
575.00,0.008
575.50,0.011
576.00,0.010
576.50,0.007
577.00,0.008
577.50,0.005
578.00,0.005
578.50,0.007
579.00,0.007
579.50,0.004
580.00,0.007
580.50,0.010
581.00,0.008
581.50,0.006
582.00,0.007
582.50,0.008
583.00,0.008
583.50,0.006
584.00,0.005
584.50,0.006
585.00,0.006
585.50,0.007
586.00,0.007
586.50,0.009
587.00,0.007
587.50,0.008
588.00,0.007
588.50,0.006
589.00,0.011
589.50,0.009
590.00,0.008
590.50,0.009
591.00,0.008
591.50,0.010
592.00,0.009
592.50,0.006
593.00,0.009
593.50,0.004
594.00,0.005
594.50,0.011
595.00,0.013
595.50,0.013
596.00,0.011
596.50,0.011
597.00,0.011
597.50,0.006
598.00,0.008
598.50,0.007
599.00,0.006
599.50,0.009
600.00,0.006
600.50,0.008
601.00,0.005
601.50,0.008
602.00,0.006
602.50,0.010
603.00,0.006
603.50,0.008
604.00,0.004
604.50,0.009
605.00,0.010
605.50,0.007
606.00,0.009
606.50,0.006
607.00,0.009
607.50,0.012
608.00,0.011
608.50,0.003
609.00,0.010
609.50,0.006
610.00,0.009
610.50,0.008
611.00,0.006
611.50,0.007
612.00,0.008
612.50,0.011
613.00,0.008
613.50,0.010
614.00,0.009
614.50,0.006
615.00,0.007
615.50,0.011
616.00,0.013
616.50,0.009
617.00,0.011
617.50,0.008
618.00,0.008
618.50,0.009
619.00,0.012
619.50,0.010
620.00,0.009
620.50,0.010
621.00,0.013
621.50,0.007
622.00,0.004
622.50,0.006
623.00,0.004
623.50,0.008
624.00,0.007
624.50,0.009
625.00,0.006
625.50,0.012
626.00,0.011
626.50,0.010
627.00,0.012
627.50,0.007
628.00,0.009
628.50,0.012
629.00,0.010
629.50,0.012
630.00,0.007
630.50,0.010
631.00,0.009
631.50,0.011
632.00,0.009
632.50,0.008
633.00,0.005
633.50,0.006
634.00,0.006
634.50,0.005
635.00,0.008
635.50,0.009
636.00,0.008
636.50,0.007
637.00,0.005
637.50,0.008
638.00,0.003
638.50,0.005
639.00,0.003
639.50,0.003
640.00,0.009
640.50,0.006
641.00,0.007
641.50,0.009
642.00,0.010
642.50,0.009
643.00,0.008
643.50,0.002
644.00,0.006
644.50,0.007
645.00,0.007
645.50,0.008
646.00,0.007
646.50,0.008
647.00,0.007
647.50,0.007
648.00,0.005
648.50,0.010
649.00,0.004
649.50,0.008
650.00,0.007
650.50,0.009
651.00,0.007
651.50,0.007
652.00,0.002
652.50,0.010
653.00,0.011
653.50,0.008
654.00,0.007
654.50,0.011
655.00,0.007
655.50,0.010
656.00,0.008
656.50,0.009
657.00,0.006
657.50,0.006
658.00,0.008
658.50,0.011
659.00,0.014
659.50,0.009
660.00,0.007
660.50,0.006
661.00,0.008
661.50,0.005
662.00,0.008
662.50,0.005
663.00,0.009
663.50,0.009
664.00,0.005
664.50,0.008
665.00,0.008
665.50,0.011
666.00,0.009
666.50,0.009
667.00,0.009
667.50,0.007
668.00,0.009
668.50,0.005
669.00,0.010
669.50,0.010
670.00,0.010
670.50,0.013
671.00,0.008
671.50,0.008
672.00,0.004
672.50,0.006
673.00,0.005
673.50,0.007
674.00,0.008
674.50,0.007
675.00,0.007
675.50,0.011
676.00,0.009
676.50,0.006
677.00,0.002
677.50,0.003
678.00,0.000
678.50,0.009
679.00,0.004
679.50,0.008
680.00,0.008
680.50,0.010
681.00,0.008
681.50,0.006
682.00,0.008
682.50,0.009
683.00,0.003
683.50,0.004
684.00,0.007
684.50,0.005
685.00,0.005
685.50,0.010
686.00,0.006
686.50,0.003
687.00,0.011
687.50,0.010
688.00,0.009
688.50,0.009
689.00,0.013
689.50,0.019
690.00,0.014
690.50,0.010
691.00,0.007
691.50,0.007
692.00,0.009
692.50,0.012
693.00,0.009
693.50,0.006
694.00,0.006
694.50,0.008
695.00,0.007
695.50,0.010
696.00,0.010
696.50,0.009
697.00,0.006
697.50,0.010
698.00,0.011
698.50,0.009
699.00,0.009
699.50,0.010
700.00,0.002
700.50,0.010
701.00,0.011
701.50,0.009
702.00,0.009
702.50,0.010
703.00,0.008
703.50,0.007
704.00,0.006
704.50,0.009
705.00,0.008
705.50,0.009
706.00,0.007
706.50,0.011
707.00,0.007
707.50,0.011
708.00,0.010
708.50,0.012
709.00,0.006
709.50,0.005
710.00,0.005
710.50,0.004
711.00,0.003
711.50,0.012
712.00,0.016
712.50,0.017
713.00,0.009
713.50,0.005
714.00,0.007
714.50,0.008
715.00,0.003
715.50,0.009
716.00,0.012
716.50,0.013
717.00,0.007
717.50,0.010
718.00,0.014
718.50,0.016
719.00,0.013
719.50,0.019
720.00,0.014
720.50,0.009
721.00,0.013
721.50,0.001
722.00,0.004
722.50,0.010
723.00,0.007
723.50,0.003
724.00,0.007
724.50,0.010
725.00,0.010
725.50,0.011
726.00,0.009
726.50,0.010
727.00,0.011
727.50,0.008
728.00,0.012
728.50,0.008
729.00,0.010
729.50,0.015
730.00,0.013
730.50,0.009
731.00,0.013
731.50,0.014
732.00,0.013
732.50,0.011
733.00,0.006
733.50,0.005
734.00,0.009
734.50,0.007
735.00,0.002
735.50,0.007
736.00,0.009
736.50,0.004
737.00,0.006
737.50,0.011
738.00,0.006
738.50,0.008
739.00,0.006
739.50,0.008
740.00,0.008
740.50,0.009
741.00,0.014
741.50,0.009
742.00,-0.002
742.50,-0.001
743.00,0.013
743.50,0.010
744.00,0.013
744.50,0.016
745.00,0.014
745.50,0.006
746.00,0.015
746.50,0.010
747.00,0.005
747.50,0.015
748.00,0.003
748.50,0.007
749.00,0.012
749.50,0.008
750.00,0.006
750.50,0.002
751.00,0.006
751.50,0.005
752.00,0.015
752.50,0.008
753.00,0.015
753.50,0.013
754.00,0.011
754.50,0.011
755.00,0.009
755.50,0.004
756.00,0.006
756.50,0.010
757.00,0.002
757.50,0.009
758.00,0.008
758.50,0.007
759.00,0.015
759.50,0.013
760.00,0.003
760.50,0.012
761.00,0.017
761.50,0.007
762.00,0.013
762.50,0.015
763.00,0.010
763.50,0.007
764.00,0.006
764.50,0.007
765.00,0.024
765.50,0.009
766.00,0.005
766.50,0.004
767.00,0.009
767.50,0.016
768.00,0.009
768.50,0.006
769.00,0.007
769.50,-0.002
770.00,0.005
770.50,-0.003
771.00,0.006
771.50,0.017
772.00,0.009
772.50,0.006
773.00,0.015
773.50,0.020
774.00,0.010
774.50,0.004
775.00,0.012
775.50,0.005
776.00,0.019
776.50,0.008
777.00,0.010
777.50,0.007
778.00,-0.003
778.50,0.009
779.00,0.004
779.50,0.006
780.00,0.006
780.50,0.016
781.00,0.016
781.50,0.015
782.00,0.014
782.50,0.011
783.00,0.010
783.50,0.009
784.00,0.009
784.50,0.004
785.00,0.006
785.50,0.001
786.00,0.013
786.50,0.009
787.00,0.014
787.50,0.009
788.00,0.014
788.50,0.009
789.00,0.016
789.50,0.005
790.00,0.005
790.50,0.005
791.00,0.009
791.50,0.005
792.00,0.014
792.50,0.007
793.00,0.005
793.50,0.008
794.00,0.010
794.50,0.011
795.00,0.007
795.50,0.008
796.00,0.008
796.50,-0.005
797.00,0.004
797.50,0.008
798.00,0.002
798.50,0.007
799.00,0.004
799.50,0.009
800.00,-0.003
