wavenumber,transmittance,absorbance
550.095200,99.764190,0.001025
550.577300,99.814000,0.000809
551.059400,99.871110,0.000560
551.541500,99.954190,0.000199
552.023600,100.038900,-0.000169
552.505700,100.287500,-0.001247
552.987900,100.442300,-0.001917
553.470000,100.634400,-0.002746
553.952100,100.897200,-0.003879
554.434200,101.193800,-0.005154
554.916300,101.523300,-0.006566
555.398400,101.847600,-0.007951
555.880600,102.205300,-0.009473
556.362700,102.490400,-0.010683
556.844800,102.659400,-0.011399
557.326900,102.700900,-0.011574
557.809000,102.655400,-0.011382
558.291100,102.531500,-0.010857
558.773300,102.515500,-0.010790
559.255400,102.409200,-0.010339
559.737500,102.310700,-0.009921
560.219600,102.265100,-0.009727
560.701700,102.261500,-0.009712
561.183800,102.266900,-0.009735
561.666000,102.307000,-0.009905
562.148100,102.398500,-0.010294
562.630200,102.527000,-0.010838
563.112300,102.714500,-0.011632
563.594400,103.118700,-0.013337
564.076500,103.476400,-0.014841
564.558700,103.803800,-0.016213
565.040800,104.101900,-0.017459
565.522900,104.289800,-0.018242
566.005000,104.369300,-0.018573
566.487100,104.369700,-0.018574
566.969200,104.329000,-0.018405
567.451400,104.273300,-0.018173
567.933500,104.213700,-0.017925
568.415600,104.242400,-0.018044
568.897700,104.255500,-0.018099
569.379800,104.156300,-0.017686
569.861900,104.029800,-0.017158
570.344100,103.865200,-0.016470
570.826200,103.685200,-0.015717
571.308300,103.586500,-0.015303
571.790400,103.505400,-0.014963
572.272500,103.430000,-0.014647
572.754600,103.457800,-0.014763
573.236800,103.375000,-0.014416
573.718900,103.287200,-0.014047
574.201000,103.203000,-0.013692
574.683100,103.130900,-0.013389
575.165200,103.075000,-0.013153
575.647300,103.033300,-0.012978
576.129500,102.994100,-0.012812
576.611600,102.942900,-0.012596
577.093700,102.871100,-0.012293
577.575800,102.776600,-0.011894
578.057900,102.663400,-0.011416
578.540000,102.534300,-0.010869
579.022200,102.392700,-0.010269
579.504300,102.241400,-0.009627
579.986400,102.080600,-0.008943
580.468500,101.910900,-0.008221
580.950600,101.733700,-0.007465
581.432700,101.557800,-0.006713
581.914900,101.399000,-0.006034
582.397000,101.279900,-0.005523
582.879100,101.223700,-0.005282
583.361200,101.248100,-0.005387
583.843300,101.354000,-0.005841
584.325400,101.526000,-0.006577
584.807600,101.737100,-0.007479
585.289700,101.956900,-0.008417
585.771800,102.161500,-0.009287
586.253900,102.336000,-0.010028
586.736000,102.476700,-0.010625
587.218100,102.341400,-0.010051
587.700300,102.162000,-0.009289
588.182400,101.995000,-0.008579
588.664500,101.890500,-0.008134
589.146600,101.873100,-0.008060
589.628700,101.932600,-0.008313
590.110800,102.029000,-0.008724
590.593000,102.108000,-0.009060
591.075100,102.124700,-0.009131
591.557200,102.062800,-0.008867
592.039300,101.940400,-0.008346
592.521400,101.797700,-0.007738
593.003500,101.674800,-0.007213
593.485700,101.594700,-0.006871
593.967800,101.557200,-0.006711
594.449900,101.545200,-0.006659
594.932000,101.537800,-0.006628
595.414100,101.523100,-0.006565
595.896200,101.504300,-0.006484
596.378400,101.494900,-0.006444
596.860500,101.507600,-0.006499
597.342600,101.544300,-0.006656
597.824700,101.592400,-0.006861
598.306800,101.629600,-0.007020
598.788900,101.635200,-0.007044
599.271100,101.601300,-0.006899
599.753200,101.538100,-0.006629
600.235300,101.468400,-0.006331
600.717400,101.415800,-0.006106
601.199500,101.394000,-0.006012
601.681600,101.401600,-0.006045
602.163800,101.425700,-0.006148
602.645900,101.451900,-0.006260
603.128000,101.474400,-0.006356
603.610100,101.501400,-0.006472
604.092200,101.551500,-0.006686
604.574300,101.643300,-0.007079
605.056500,101.783100,-0.007676
605.538600,101.959100,-0.008426
606.020700,102.141800,-0.009204
606.502800,102.295800,-0.009858
606.984900,102.394000,-0.010275
607.467000,102.428200,-0.010420
607.949200,102.410000,-0.010342
608.431300,102.361900,-0.010138
608.913400,102.305600,-0.009899
609.395500,102.252900,-0.009676
609.877600,102.205500,-0.009474
610.359700,102.160100,-0.009281
610.841900,102.117000,-0.009098
611.324000,102.084600,-0.008960
611.806100,102.076400,-0.008925
612.288200,102.102400,-0.009036
612.770300,102.158900,-0.009276
613.252400,102.224300,-0.009554
613.734600,102.264200,-0.009724
614.216700,102.244300,-0.009639
614.698800,102.145500,-0.009219
615.180900,101.973100,-0.008486
615.663000,101.754000,-0.007551
616.145100,101.524900,-0.006573
616.627300,101.318100,-0.005687
617.109400,101.151200,-0.004971
617.591500,101.025300,-0.004430
618.073600,100.931400,-0.004026
618.555700,100.859400,-0.003716
619.037800,100.806100,-0.003487
619.520000,100.776300,-0.003358
620.002100,100.777300,-0.003363
620.484200,100.811000,-0.003508
620.966300,100.869900,-0.003762
621.448400,100.936800,-0.004050
621.930500,100.992000,-0.004287
622.412700,101.021200,-0.004413
622.894800,101.020800,-0.004411
623.376900,100.997300,-0.004310
623.859000,100.961400,-0.004155
624.341100,100.921700,-0.003985
624.823200,100.880800,-0.003809
625.305400,100.835700,-0.003614
625.787500,100.783000,-0.003387
626.269600,100.723000,-0.003129
626.751700,100.661800,-0.002865
627.233800,100.609500,-0.002639
627.715900,100.575100,-0.002490
628.198100,100.562300,-0.002435
628.680200,100.567600,-0.002458
629.162300,100.582700,-0.002523
629.644400,100.598700,-0.002592
630.126500,100.610800,-0.002645
630.608600,100.621000,-0.002689
631.090800,100.635500,-0.002751
631.572900,100.660500,-0.002859
632.055000,100.697600,-0.003019
632.537100,100.741300,-0.003208
633.019200,100.781700,-0.003382
633.501300,100.807800,-0.003494
633.983500,100.814200,-0.003522
634.465600,100.803100,-0.003474
634.947700,100.782700,-0.003386
635.429800,100.762800,-0.003300
635.911900,100.748200,-0.003237
636.394000,100.737000,-0.003189
636.876200,100.720200,-0.003117
637.358300,100.687600,-0.002976
637.840400,100.632700,-0.002739
638.322500,100.557200,-0.002413
638.804600,100.470200,-0.002037
639.286700,100.385000,-0.001669
639.768900,100.313400,-0.001359
640.251000,100.262600,-0.001139
640.733100,100.233300,-0.001012
641.215200,100.221200,-0.000960
641.697300,100.220600,-0.000957
642.179400,100.226100,-0.000981
642.661600,100.233700,-0.001014
643.143700,100.239500,-0.001039
643.625800,100.238600,-0.001035
644.107900,100.225000,-0.000976
644.590000,100.193600,-0.000840
645.072100,100.142900,-0.000620
645.554300,100.078000,-0.000339
646.036400,100.010100,-0.000044
646.518500,99.953500,0.000202
647.000600,99.920490,0.000345
647.482700,99.916750,0.000362
647.964800,99.938320,0.000268
648.447000,99.972640,0.000119
648.929100,100.003700,-0.000016
649.411200,100.017700,-0.000077
649.893300,100.008500,-0.000037
650.375400,99.978480,0.000093
650.857500,99.936420,0.000276
651.339700,99.892650,0.000466
651.821800,99.854780,0.000631
652.303900,99.825210,0.000760
652.786000,99.801810,0.000862
653.268100,99.780400,0.000955
653.750200,99.757870,0.001053
654.232400,99.733890,0.001157
654.714500,99.710270,0.001260
655.196600,99.689230,0.001352
655.678700,99.671320,0.001430
656.160800,99.654770,0.001502
656.642900,99.636810,0.001580
657.125100,99.615900,0.001671
657.607200,99.593730,0.001768
658.089300,99.575420,0.001848
658.571400,99.567730,0.001881
659.053500,99.575650,0.001847
659.535600,99.599850,0.001741
660.017800,99.635960,0.001584
660.499900,99.676570,0.001407
660.982000,99.715160,0.001239
661.464100,99.749160,0.001091
661.946200,99.780690,0.000953
662.428300,99.814000,0.000809
662.910500,99.850870,0.000648
663.392600,99.885900,0.000496
663.874700,99.904790,0.000414
664.356800,99.885980,0.000495
664.838900,99.804350,0.000851
665.321000,99.635380,0.001586
665.803200,99.359760,0.002789
666.285300,98.972860,0.004484
666.767400,98.502550,0.006553
667.249500,98.031020,0.008636
667.731600,97.691500,0.010143
668.213700,97.604520,0.010530
668.695900,97.789340,0.009708
669.178000,98.154620,0.008089
669.660100,98.575790,0.006230
670.142200,98.961570,0.004533
670.624300,99.267170,0.003194
671.106400,99.480350,0.002263
671.588600,99.606830,0.001711
672.070700,99.662380,0.001469
672.552800,99.668190,0.001443
673.034900,99.646770,0.001537
673.517000,99.617090,0.001666
673.999100,99.590850,0.001781
674.481300,99.571740,0.001864
674.963400,99.557910,0.001924
675.445500,99.545850,0.001977
675.927600,99.533580,0.002030
676.409700,99.521980,0.002081
676.891800,99.514100,0.002115
677.374000,99.513080,0.002120
677.856100,99.520100,0.002089
678.338200,99.533570,0.002030
678.820300,99.549610,0.001960
679.302400,99.563580,0.001899
679.784500,99.572070,0.001862
680.266700,99.573630,0.001856
680.748800,99.569180,0.001875
681.230900,99.561080,0.001910
681.713000,99.552140,0.001949
682.195100,99.544800,0.001981
682.677200,99.541030,0.001998
683.159400,99.542500,0.001991
683.641500,99.550890,0.001955
684.123600,99.567570,0.001882
684.605700,99.592900,0.001772
685.087800,99.625470,0.001630
685.569900,99.662020,0.001470
686.052100,99.697970,0.001314
686.534200,99.728770,0.001180
687.016300,99.751160,0.001082
687.498400,99.764430,0.001024
687.980500,99.770310,0.000999
688.462600,99.772090,0.000991
688.944800,99.773160,0.000986
689.426900,99.775490,0.000976
689.909000,99.779340,0.000959
690.391100,99.783770,0.000940
690.873200,99.787960,0.000922
691.355300,99.792270,0.000903
691.837500,99.798390,0.000876
692.319600,99.808550,0.000832
692.801700,99.824210,0.000764
693.283800,99.844790,0.000675
693.765900,99.867610,0.000575
694.248000,99.888730,0.000484
694.730200,99.904700,0.000414
695.212300,99.914150,0.000373
695.694400,99.918330,0.000355
696.176500,99.920620,0.000345
696.658600,99.924810,0.000327
697.140700,99.933390,0.000289
697.622900,99.946600,0.000232
698.105000,99.962660,0.000162
698.587100,99.979000,0.000091
699.069200,99.993820,0.000027
699.551300,100.006800,-0.000030
700.033400,100.019000,-0.000083
700.515600,100.031800,-0.000138
700.997700,100.045600,-0.000198
701.479800,100.059000,-0.000256
701.961900,100.069700,-0.000303
702.444000,100.075200,-0.000326
702.926100,100.074900,-0.000325
703.408300,100.070300,-0.000305
703.890400,100.064700,-0.000281
704.372500,100.061700,-0.000268
704.854600,100.063400,-0.000275
705.336700,100.069300,-0.000301
705.818800,100.076900,-0.000334
706.301000,100.082600,-0.000359
706.783100,100.084100,-0.000365
707.265200,100.081200,-0.000353
707.747300,100.076100,-0.000330
708.229400,100.072000,-0.000313
708.711500,100.071500,-0.000310
709.193700,100.075200,-0.000326
709.675800,100.081800,-0.000355
710.157900,100.088900,-0.000386
710.640000,100.094400,-0.000410
711.122100,100.097300,-0.000422
711.604200,100.098300,-0.000427
712.086400,100.098000,-0.000425
712.568500,100.096500,-0.000419
713.050600,100.093000,-0.000404
713.532700,100.085100,-0.000369
714.014800,100.071300,-0.000310
714.496900,100.051700,-0.000224
714.979100,100.028900,-0.000125
715.461200,100.007200,-0.000031
715.943300,99.990390,0.000042
716.425400,99.980460,0.000085
716.907500,99.976020,0.000104
717.389600,99.973160,0.000117
717.871800,99.967600,0.000141
718.353900,99.957110,0.000186
718.836000,99.943310,0.000246
719.318100,99.931500,0.000298
719.800200,99.928540,0.000310
720.282300,99.939610,0.000262
720.764500,99.965460,0.000150
721.246600,100.001700,-0.000007
721.728700,100.040000,-0.000174
722.210800,100.071700,-0.000311
722.692900,100.090500,-0.000393
723.175000,100.094600,-0.000411
723.657200,100.086800,-0.000377
724.139300,100.072800,-0.000316
724.621400,100.058100,-0.000252
725.103500,100.046200,-0.000201
725.585600,100.038400,-0.000167
726.067700,100.033300,-0.000145
726.549900,100.029200,-0.000127
727.032000,100.025000,-0.000109
727.514100,100.020600,-0.000089
727.996200,100.016700,-0.000073
728.478300,100.013900,-0.000060
728.960400,100.012000,-0.000052
729.442600,100.010100,-0.000044
729.924700,100.007400,-0.000032
730.406800,100.003400,-0.000015
730.888900,99.999340,0.000003
731.371000,99.996960,0.000013
731.853100,99.998120,0.000008
732.335300,100.003600,-0.000016
732.817400,100.012500,-0.000054
733.299500,100.022800,-0.000099
733.781600,100.031900,-0.000139
734.263700,100.037900,-0.000165
734.745800,100.040000,-0.000174
735.228000,100.038400,-0.000167
735.710100,100.033500,-0.000145
736.192200,100.025300,-0.000110
736.674300,100.013300,-0.000058
737.156400,99.996900,0.000013
737.638500,99.976070,0.000104
738.120700,99.952350,0.000207
738.602800,99.928810,0.000309
739.084900,99.909100,0.000395
739.567000,99.896170,0.000451
740.049100,99.891010,0.000474
740.531300,99.892300,0.000468
741.013400,99.897100,0.000447
741.495500,99.902050,0.000426
741.977600,99.904890,0.000413
742.459700,99.905230,0.000412
742.941800,99.904480,0.000415
743.424000,99.904950,0.000413
743.906100,99.908650,0.000397
744.388200,99.916690,0.000362
744.870300,99.928910,0.000309
745.352400,99.944510,0.000241
745.834500,99.962440,0.000163
746.316700,99.981640,0.000080
746.798800,100.000900,-0.000004
747.280900,100.018500,-0.000080
747.763000,100.031900,-0.000139
748.245100,100.038300,-0.000166
748.727200,100.035500,-0.000154
749.209400,100.023400,-0.000102
749.691500,100.004200,-0.000018
750.173600,99.982500,0.000076
750.655700,99.963370,0.000159
751.137800,99.950710,0.000214
751.619900,99.945680,0.000236
752.102100,99.946310,0.000233
752.584200,99.948610,0.000223
753.066300,99.948290,0.000225
753.548400,99.942630,0.000249
754.030500,99.931540,0.000297
754.512600,99.917080,0.000360
754.994800,99.902210,0.000425
755.476900,99.889230,0.000481
755.959000,99.878610,0.000528
756.441100,99.869290,0.000568
756.923200,99.859500,0.000611
757.405300,99.848180,0.000660
757.887500,99.835710,0.000714
758.369600,99.823990,0.000765
758.851700,99.815450,0.000802
759.333800,99.811860,0.000818
759.815900,99.813510,0.000811
760.298000,99.819180,0.000786
760.780200,99.826770,0.000753
761.262300,99.834270,0.000720
761.744400,99.840400,0.000694
762.226500,99.844830,0.000674
762.708600,99.847460,0.000663
763.190700,99.847940,0.000661
763.672900,99.845090,0.000673
764.155000,99.837290,0.000707
764.637100,99.823200,0.000769
765.119200,99.802640,0.000858
765.601300,99.777020,0.000969
766.083400,99.749040,0.001091
766.565600,99.721980,0.001209
767.047700,99.698650,0.001311
767.529800,99.680710,0.001389
768.011900,99.668650,0.001441
768.494000,99.661990,0.001470
768.976100,99.659760,0.001480
769.458300,99.660590,0.001477
769.940400,99.662730,0.001467
770.422500,99.663570,0.001464
770.904600,99.659800,0.001480
771.386700,99.647780,0.001532
771.868800,99.624660,0.001633
772.351000,99.589460,0.001787
772.833100,99.543720,0.001986
773.315200,99.491450,0.002214
773.797300,99.437700,0.002449
774.279400,99.387150,0.002670
774.761500,99.342500,0.002865
775.243700,99.303990,0.003033
775.725800,99.269850,0.003183
776.207900,99.237450,0.003324
776.690000,99.204550,0.003468
777.172100,99.170140,0.003619
777.654200,99.134310,0.003776
778.136400,99.097520,0.003937
778.618500,99.060070,0.004101
779.100600,99.021460,0.004271
779.582700,98.980650,0.004450
780.064800,98.936860,0.004642
780.546900,98.890000,0.004848
781.029100,98.840890,0.005063
781.511200,98.791030,0.005282
781.993300,98.741790,0.005499
782.475400,98.694080,0.005709
782.957500,98.648190,0.005911
783.439600,98.604610,0.006103
783.921800,98.564610,0.006279
784.403900,98.530820,0.006428
784.886000,98.506890,0.006533
785.368100,98.496630,0.006579
785.850200,98.502570,0.006552
786.332300,98.525160,0.006453
786.814500,98.562620,0.006288
787.296600,98.611520,0.006072
787.778700,98.668180,0.005823
788.260800,98.729730,0.005552
788.742900,98.794710,0.005266
789.225000,98.862740,0.004967
789.707200,98.933700,0.004656
790.189300,99.006710,0.004335
790.671400,99.079740,0.004015
791.153500,99.149980,0.003707
791.635600,99.215120,0.003422
792.117700,99.274200,0.003164
792.599900,99.328240,0.002927
793.082000,99.379610,0.002703
793.564100,99.430780,0.002479
794.046200,99.483000,0.002251
794.528300,99.535490,0.002022
795.010400,99.585740,0.001803
795.492600,99.630650,0.001607
795.974700,99.668040,0.001444
796.456800,99.697480,0.001316
796.938900,99.720400,0.001216
797.421000,99.739030,0.001135
797.903100,99.755420,0.001063
798.385300,99.770520,0.000998
798.867400,99.784190,0.000938
799.349500,99.796070,0.000887
799.831600,99.806260,0.000842
800.313700,99.815670,0.000801
800.795800,99.825610,0.000758
801.278000,99.836760,0.000710
801.760100,99.848260,0.000659
802.242200,99.857480,0.000619
802.724300,99.861280,0.000603
803.206400,99.857190,0.000621
803.688500,99.845150,0.000673
804.170700,99.828180,0.000747
804.652800,99.811370,0.000820
805.134900,99.800170,0.000869
805.617000,99.798190,0.000877
806.099100,99.806040,0.000843
806.581200,99.821270,0.000777
807.063400,99.839710,0.000697
807.545500,99.857240,0.000620
808.027600,99.871250,0.000560
808.509700,99.881200,0.000516
808.991800,99.887940,0.000487
809.473900,99.892580,0.000467
809.956100,99.895440,0.000454
810.438200,99.895740,0.000453
810.920300,99.892100,0.000469
811.402400,99.883460,0.000506
811.884500,99.869880,0.000565
812.366600,99.852780,0.000640
812.848800,99.834320,0.000720
813.330900,99.816670,0.000797
813.813000,99.801380,0.000863
814.295100,99.789140,0.000917
814.777200,99.780120,0.000956
815.259300,99.774400,0.000981
815.741500,99.772190,0.000990
816.223600,99.773700,0.000984
816.705700,99.778590,0.000963
817.187800,99.785710,0.000932
817.669900,99.793000,0.000900
818.152000,99.798170,0.000877
818.634200,99.799630,0.000871
819.116300,99.797270,0.000881
819.598400,99.792740,0.000901
820.080500,99.788670,0.000919
820.562600,99.787800,0.000923
821.044700,99.791570,0.000906
821.526900,99.799710,0.000871
822.009000,99.810270,0.000825
822.491100,99.820590,0.000780
822.973200,99.828180,0.000747
823.455300,99.831440,0.000733
823.937400,99.829920,0.000739
824.419600,99.823890,0.000766
824.901700,99.814070,0.000808
825.383800,99.801270,0.000864
825.865900,99.786740,0.000927
826.348000,99.772190,0.000990
826.830100,99.760070,0.001043
827.312300,99.752710,0.001075
827.794400,99.751710,0.001080
828.276500,99.756980,0.001057
828.758600,99.766410,0.001016
829.240700,99.776550,0.000972
829.722800,99.783910,0.000939
830.205000,99.786360,0.000929
830.687100,99.784150,0.000938
831.169200,99.779680,0.000958
831.651300,99.776280,0.000973
832.133400,99.776390,0.000972
832.615500,99.780480,0.000954
833.097700,99.786440,0.000928
833.579800,99.791110,0.000908
834.061900,99.791540,0.000906
834.544000,99.787030,0.000926
835.026100,99.779650,0.000958
835.508200,99.773230,0.000986
835.990400,99.771880,0.000992
836.472500,99.777760,0.000966
836.954600,99.790120,0.000912
837.436700,99.805570,0.000845
837.918800,99.819340,0.000785
838.400900,99.827450,0.000750
838.883100,99.828010,0.000748
839.365200,99.821890,0.000774
839.847300,99.811730,0.000818
840.329400,99.800720,0.000866
840.811500,99.791280,0.000907
841.293600,99.784540,0.000937
841.775800,99.780560,0.000954
842.257900,99.779120,0.000960
842.740000,99.780070,0.000956
843.222100,99.783630,0.000941
843.704200,99.789670,0.000914
844.186300,99.797170,0.000882
844.668500,99.803930,0.000852
845.150600,99.806970,0.000839
845.632700,99.803570,0.000854
846.114800,99.792440,0.000902
846.596900,99.774540,0.000980
847.079000,99.752980,0.001074
847.561200,99.731910,0.001166
848.043300,99.715230,0.001239
848.525400,99.705410,0.001281
849.007500,99.702950,0.001292
849.489600,99.706630,0.001276
849.971700,99.714220,0.001243
850.453900,99.723250,0.001204
850.936000,99.731630,0.001167
851.418100,99.737670,0.001141
851.900200,99.740340,0.001129
852.382300,99.739030,0.001135
852.864400,99.734000,0.001157
853.346600,99.726510,0.001189
853.828700,99.718790,0.001223
854.310800,99.713460,0.001246
854.792900,99.712580,0.001250
855.275000,99.716530,0.001233
855.757100,99.723490,0.001203
856.239300,99.729730,0.001175
856.721400,99.730870,0.001170
857.203500,99.723590,0.001202
857.685600,99.707140,0.001274
858.167700,99.683750,0.001376
858.649800,99.658000,0.001488
859.132000,99.635000,0.001588
859.614100,99.618600,0.001660
860.096200,99.610170,0.001696
860.578300,99.608470,0.001704
861.060400,99.610590,0.001694
861.542500,99.613270,0.001683
