"Storage 210727 - RawData - C:\Documents and Settings\uvvis\Desktop\n\File_260414_210727.spc"
"Wavelength nm.","Abs."
190.00,0.754
190.50,0.755
191.00,0.874
191.50,0.845
192.00,0.695
192.50,0.848
193.00,0.834
193.50,0.888
194.00,0.704
194.50,0.713
195.00,0.713
195.50,0.811
196.00,0.686
196.50,0.826
197.00,0.664
197.50,0.649
198.00,0.648
198.50,0.630
199.00,0.710
199.50,0.785
200.00,0.814
200.50,0.807
201.00,0.726
201.50,0.747
202.00,0.717
202.50,0.702
203.00,0.691
203.50,0.736
204.00,0.699
204.50,0.693
205.00,0.634
205.50,0.609
206.00,0.595
206.50,0.579
207.00,0.550
207.50,0.557
208.00,0.530
208.50,0.472
209.00,0.503
209.50,0.458
210.00,0.442
210.50,0.414
211.00,0.395
211.50,0.336
212.00,0.368
212.50,0.353
213.00,0.316
213.50,0.327
214.00,0.314
214.50,0.301
215.00,0.275
215.50,0.262
216.00,0.257
216.50,0.255
217.00,0.252
217.50,0.290
218.00,0.241
218.50,0.260
219.00,0.267
219.50,0.250
220.00,0.261
220.50,0.276
221.00,0.278
221.50,0.276
222.00,0.290
222.50,0.304
223.00,0.330
223.50,0.321
224.00,0.317
224.50,0.327
225.00,0.364
225.50,0.367
226.00,0.360
226.50,0.358
227.00,0.372
227.50,0.379
228.00,0.386
228.50,0.413
229.00,0.414
229.50,0.393
230.00,0.417
230.50,0.404
231.00,0.422
231.50,0.421
232.00,0.416
232.50,0.417
233.00,0.425
233.50,0.422
234.00,0.425
234.50,0.404
235.00,0.401
235.50,0.403
236.00,0.411
236.50,0.397
237.00,0.383
237.50,0.377
238.00,0.374
238.50,0.363
239.00,0.352
239.50,0.343
240.00,0.345
240.50,0.329
241.00,0.323
241.50,0.322
242.00,0.321
242.50,0.325
243.00,0.303
243.50,0.308
244.00,0.315
244.50,0.314
245.00,0.324
245.50,0.295
246.00,0.294
246.50,0.292
247.00,0.310
247.50,0.309
248.00,0.313
248.50,0.296
249.00,0.294
249.50,0.288
250.00,0.299
250.50,0.301
251.00,0.309
251.50,0.304
252.00,0.310
252.50,0.309
253.00,0.306
253.50,0.299
254.00,0.309
254.50,0.308
255.00,0.314
255.50,0.296
256.00,0.289
256.50,0.284
257.00,0.278
257.50,0.267
258.00,0.245
258.50,0.219
259.00,0.201
259.50,0.192
260.00,0.166
260.50,0.162
261.00,0.164
261.50,0.133
262.00,0.134
262.50,0.121
263.00,0.122
263.50,0.119
264.00,0.114
264.50,0.104
265.00,0.119
265.50,0.123
266.00,0.109
266.50,0.106
267.00,0.100
267.50,0.107
268.00,0.101
268.50,0.095
269.00,0.104
269.50,0.103
270.00,0.107
270.50,0.103
271.00,0.100
271.50,0.098
272.00,0.104
272.50,0.107
273.00,0.097
273.50,0.108
274.00,0.099
274.50,0.117
275.00,0.117
275.50,0.125
276.00,0.120
276.50,0.123
277.00,0.131
277.50,0.121
278.00,0.131
278.50,0.141
279.00,0.137
279.50,0.143
280.00,0.156
280.50,0.145
281.00,0.144
281.50,0.142
282.00,0.155
282.50,0.159
283.00,0.146
283.50,0.162
284.00,0.168
284.50,0.171
285.00,0.165
285.50,0.179
286.00,0.183
286.50,0.181
287.00,0.188
287.50,0.189
288.00,0.187
288.50,0.205
289.00,0.196
289.50,0.210
290.00,0.216
290.50,0.205
291.00,0.220
291.50,0.223
292.00,0.225
292.50,0.231
293.00,0.242
293.50,0.223
294.00,0.236
294.50,0.240
295.00,0.255
295.50,0.259
296.00,0.269
296.50,0.256
297.00,0.254
297.50,0.251
298.00,0.230
298.50,0.250
299.00,0.225
299.50,0.224
300.00,0.209
300.50,0.224
301.00,0.225
301.50,0.217
302.00,0.230
302.50,0.213
303.00,0.198
303.50,0.199
304.00,0.195
304.50,0.198
305.00,0.191
305.50,0.178
306.00,0.170
306.50,0.182
307.00,0.169
307.50,0.160
308.00,0.152
308.50,0.165
309.00,0.140
309.50,0.135
310.00,0.143
310.50,0.126
311.00,0.110
311.50,0.128
312.00,0.117
312.50,0.105
313.00,0.112
313.50,0.122
314.00,0.119
314.50,0.121
315.00,0.109
315.50,0.104
316.00,0.107
316.50,0.104
317.00,0.097
317.50,0.100
318.00,0.094
318.50,0.106
319.00,0.094
319.50,0.088
320.00,0.079
320.50,0.095
321.00,0.094
321.50,0.079
322.00,0.090
322.50,0.074
323.00,0.068
323.50,0.092
324.00,0.051
324.50,0.060
325.00,0.055
325.50,0.048
326.00,0.055
326.50,0.059
327.00,0.050
327.50,0.043
328.00,0.055
328.50,0.054
329.00,0.061
329.50,0.067
330.00,0.063
330.50,0.051
331.00,0.045
331.50,0.058
332.00,0.046
332.50,0.070
333.00,0.051
333.50,0.040
334.00,0.056
334.50,0.042
335.00,0.037
335.50,0.039
336.00,0.021
336.50,0.020
337.00,0.032
337.50,0.033
338.00,0.026
338.50,0.035
339.00,0.032
339.50,0.016
340.00,0.013
340.50,0.009
341.00,0.026
341.50,0.030
342.00,0.034
342.50,0.023
343.00,0.023
343.50,0.021
344.00,0.012
344.50,0.016
345.00,0.032
345.50,0.030
346.00,0.035
346.50,0.034
347.00,0.037
347.50,0.038
348.00,0.034
348.50,0.035
349.00,0.034
349.50,0.022
350.00,0.030
350.50,0.027
351.00,0.046
351.50,0.023
352.00,0.026
352.50,0.042
353.00,0.044
353.50,0.033
354.00,0.025
354.50,0.027
355.00,0.032
355.50,0.036
356.00,0.033
356.50,0.038
357.00,0.041
357.50,0.046
358.00,0.045
358.50,0.039
359.00,0.038
359.50,0.044
360.00,0.043
360.50,0.042
361.00,0.038
361.50,0.039
362.00,0.043
362.50,0.051
363.00,0.050
363.50,0.058
364.00,0.046
364.50,0.046
365.00,0.049
365.50,0.054
366.00,0.057
366.50,0.053
367.00,0.056
367.50,0.060
368.00,0.053
368.50,0.060
369.00,0.056
369.50,0.050
370.00,0.057
370.50,0.060
371.00,0.066
371.50,0.063
372.00,0.059
372.50,0.061
373.00,0.057
373.50,0.066
374.00,0.059
374.50,0.062
375.00,0.067
375.50,0.069
376.00,0.065
376.50,0.063
377.00,0.067
377.50,0.070
378.00,0.061
378.50,0.066
379.00,0.070
379.50,0.069
380.00,0.068
380.50,0.067
381.00,0.069
381.50,0.072
382.00,0.068
382.50,0.070
383.00,0.072
383.50,0.074
384.00,0.082
384.50,0.079
385.00,0.084
385.50,0.089
386.00,0.092
386.50,0.094
387.00,0.086
387.50,0.087
388.00,0.091
388.50,0.093
389.00,0.095
389.50,0.089
390.00,0.088
390.50,0.092
391.00,0.094
391.50,0.094
392.00,0.094
392.50,0.097
393.00,0.091
393.50,0.094
394.00,0.091
394.50,0.095
395.00,0.090
395.50,0.091
396.00,0.088
396.50,0.085
397.00,0.090
397.50,0.080
398.00,0.088
398.50,0.090
399.00,0.092
399.50,0.094
400.00,0.094
400.50,0.094
401.00,0.097
401.50,0.097
402.00,0.097
402.50,0.093
403.00,0.096
403.50,0.086
404.00,0.098
404.50,0.094
405.00,0.100
405.50,0.106
406.00,0.108
406.50,0.110
407.00,0.109
407.50,0.113
408.00,0.112
408.50,0.109
409.00,0.111
409.50,0.116
410.00,0.114
410.50,0.127
411.00,0.121
411.50,0.126
412.00,0.132
412.50,0.133
413.00,0.141
413.50,0.134
414.00,0.138
414.50,0.142
415.00,0.142
415.50,0.147
416.00,0.145
416.50,0.150
417.00,0.158
417.50,0.154
418.00,0.166
418.50,0.160
419.00,0.165
419.50,0.167
420.00,0.166
420.50,0.173
421.00,0.179
421.50,0.179
422.00,0.186
422.50,0.189
423.00,0.195
423.50,0.201
424.00,0.199
424.50,0.204
425.00,0.212
425.50,0.210
426.00,0.214
426.50,0.218
427.00,0.219
427.50,0.227
428.00,0.229
428.50,0.232
429.00,0.234
429.50,0.239
430.00,0.239
430.50,0.245
431.00,0.244
431.50,0.251
432.00,0.257
432.50,0.257
433.00,0.258
433.50,0.268
434.00,0.266
434.50,0.269
435.00,0.276
435.50,0.273
436.00,0.279
436.50,0.282
437.00,0.285
437.50,0.284
438.00,0.285
438.50,0.289
439.00,0.296
439.50,0.293
440.00,0.300
440.50,0.304
441.00,0.304
441.50,0.304
442.00,0.308
442.50,0.313
443.00,0.314
443.50,0.319
444.00,0.323
444.50,0.324
445.00,0.320
445.50,0.326
446.00,0.325
446.50,0.328
447.00,0.330
447.50,0.327
448.00,0.335
448.50,0.336
449.00,0.340
449.50,0.337
450.00,0.338
450.50,0.339
451.00,0.340
451.50,0.338
452.00,0.344
452.50,0.342
453.00,0.345
453.50,0.346
454.00,0.344
454.50,0.342
455.00,0.345
455.50,0.343
456.00,0.337
456.50,0.333
457.00,0.333
457.50,0.332
458.00,0.332
458.50,0.335
459.00,0.334
459.50,0.330
460.00,0.325
460.50,0.326
461.00,0.319
461.50,0.320
462.00,0.317
462.50,0.315
463.00,0.306
463.50,0.297
464.00,0.294
464.50,0.295
465.00,0.290
465.50,0.285
466.00,0.284
466.50,0.282
467.00,0.277
467.50,0.271
468.00,0.268
468.50,0.258
469.00,0.255
469.50,0.249
470.00,0.242
470.50,0.236
471.00,0.227
471.50,0.221
472.00,0.222
472.50,0.216
473.00,0.205
473.50,0.197
474.00,0.194
474.50,0.187
475.00,0.177
475.50,0.174
476.00,0.167
476.50,0.159
477.00,0.158
477.50,0.150
478.00,0.145
478.50,0.141
479.00,0.131
479.50,0.133
480.00,0.128
480.50,0.120
481.00,0.111
481.50,0.106
482.00,0.105
482.50,0.100
483.00,0.097
483.50,0.091
484.00,0.089
484.50,0.084
485.00,0.083
485.50,0.076
486.00,0.076
486.50,0.070
487.00,0.068
487.50,0.064
488.00,0.061
488.50,0.056
489.00,0.053
489.50,0.045
490.00,0.047
490.50,0.042
491.00,0.040
491.50,0.035
492.00,0.037
492.50,0.035
493.00,0.032
493.50,0.033
494.00,0.032
494.50,0.028
495.00,0.028
495.50,0.026
496.00,0.023
496.50,0.025
497.00,0.020
497.50,0.017
498.00,0.017
498.50,0.018
499.00,0.016
499.50,0.017
500.00,0.017
500.50,0.015
501.00,0.017
501.50,0.014
502.00,0.013
502.50,0.008
503.00,0.010
503.50,0.009
504.00,0.011
504.50,0.011
505.00,0.008
505.50,0.007
506.00,0.006
506.50,0.009
507.00,0.012
507.50,0.005
508.00,0.004
508.50,0.008
509.00,0.004
509.50,0.002
510.00,0.005
510.50,0.001
511.00,0.001
511.50,0.005
512.00,0.002
512.50,0.004
513.00,0.006
513.50,0.005
514.00,0.006
514.50,0.008
515.00,0.005
515.50,0.004
516.00,0.004
516.50,0.003
517.00,0.003
517.50,0.004
518.00,0.004
518.50,0.004
519.00,0.004
519.50,0.004
520.00,0.005
520.50,0.005
521.00,0.003
521.50,0.002
522.00,0.002
522.50,0.003
523.00,-0.001
523.50,0.004
524.00,0.004
524.50,0.004
525.00,0.008
525.50,0.004
526.00,0.005
526.50,0.000
527.00,0.006
527.50,0.004
528.00,0.004
528.50,0.004
529.00,0.001
529.50,0.001
530.00,-0.002
530.50,-0.004
531.00,-0.001
531.50,-0.003
532.00,-0.001
532.50,0.000
533.00,0.003
533.50,-0.000
534.00,0.004
534.50,0.006
535.00,0.002
535.50,0.003
536.00,0.002
536.50,0.001
537.00,0.004
537.50,0.001
538.00,0.000
538.50,0.005
539.00,0.004
539.50,0.006
540.00,0.003
540.50,0.004
541.00,0.002
541.50,0.006
542.00,0.003
542.50,0.002
543.00,0.001
543.50,0.001
544.00,0.002
544.50,0.002
545.00,-0.000
545.50,-0.001
546.00,-0.002
546.50,0.002
547.00,0.002
547.50,0.002
548.00,0.004
548.50,0.004
549.00,0.003
549.50,0.002
550.00,0.004
550.50,0.003
551.00,0.002
551.50,0.001
552.00,0.004
552.50,0.002
553.00,0.003
553.50,0.003
554.00,0.004
554.50,0.005
555.00,0.003
555.50,0.004
556.00,0.002
556.50,0.004
557.00,-0.002
557.50,0.005
558.00,0.001
558.50,0.002
559.00,0.003
559.50,0.000
560.00,0.004
560.50,0.007
561.00,0.001
561.50,0.004
562.00,0.001
562.50,-0.001
563.00,0.002
563.50,-0.003
564.00,0.004
564.50,0.004
565.00,-0.004
565.50,0.000
566.00,0.003
566.50,-0.000
567.00,-0.001
567.50,0.000
568.00,-0.001
568.50,0.000
569.00,0.002
569.50,0.005
570.00,0.003
570.50,0.006
571.00,0.005
571.50,0.007
572.00,0.005
572.50,0.002
573.00,0.001
573.50,0.001
574.00,0.001
574.50,-0.000
575.00,0.002
575.50,0.002
576.00,-0.003
576.50,-0.001
577.00,-0.002
577.50,0.001
578.00,0.003
578.50,0.001
579.00,0.001
579.50,0.002
580.00,0.001
580.50,0.003
581.00,0.001
581.50,0.004
582.00,0.004
582.50,0.003
583.00,0.000
583.50,-0.001
584.00,-0.001
584.50,0.003
585.00,-0.000
585.50,-0.002
586.00,0.003
586.50,0.004
587.00,0.004
587.50,0.003
588.00,0.002
588.50,-0.002
589.00,0.001
589.50,-0.001
590.00,0.003
590.50,0.003
591.00,0.002
591.50,0.004
592.00,0.002
592.50,-0.003
593.00,0.002
593.50,-0.001
594.00,0.004
594.50,0.002
595.00,0.003
595.50,0.001
596.00,0.002
596.50,0.002
597.00,0.001
597.50,0.002
598.00,0.001
598.50,0.005
599.00,0.003
599.50,0.002
600.00,0.002
600.50,0.004
601.00,0.003
601.50,-0.001
602.00,0.002
602.50,0.002
603.00,0.003
603.50,0.006
604.00,0.002
604.50,0.004
605.00,0.003
605.50,0.001
606.00,0.006
606.50,0.003
607.00,0.004
607.50,0.000
608.00,0.002
608.50,0.007
609.00,0.005
609.50,0.004
610.00,0.000
610.50,0.001
611.00,0.002
611.50,0.003
612.00,0.006
612.50,0.005
613.00,0.012
613.50,0.006
614.00,0.001
614.50,-0.000
615.00,-0.001
615.50,-0.000
616.00,-0.001
616.50,-0.002
617.00,-0.002
617.50,0.000
618.00,0.002
618.50,0.002
619.00,0.001
619.50,0.002
620.00,0.004
620.50,0.005
621.00,0.003
621.50,0.003
622.00,0.003
622.50,0.001
623.00,-0.001
623.50,-0.002
624.00,0.002
624.50,0.003
625.00,-0.003
625.50,0.002
626.00,0.002
626.50,0.001
627.00,-0.001
627.50,0.004
628.00,0.005
628.50,0.010
629.00,0.008
629.50,0.004
630.00,0.005
630.50,0.003
631.00,0.006
631.50,0.002
632.00,-0.001
632.50,-0.003
633.00,-0.003
633.50,0.001
634.00,-0.000
634.50,0.001
635.00,0.003
635.50,0.003
636.00,-0.003
636.50,-0.002
637.00,-0.002
637.50,-0.003
638.00,-0.004
638.50,0.001
639.00,0.001
639.50,0.001
640.00,0.002
640.50,0.003
641.00,0.004
641.50,-0.003
642.00,0.006
642.50,-0.001
643.00,0.004
643.50,0.002
644.00,0.002
644.50,0.002
645.00,0.002
645.50,0.001
646.00,0.000
646.50,-0.001
647.00,0.003
647.50,0.001
648.00,-0.002
648.50,0.001
649.00,-0.001
649.50,0.002
650.00,-0.001
650.50,0.001
651.00,0.003
651.50,0.001
652.00,-0.001
652.50,-0.003
653.00,-0.006
653.50,-0.002
654.00,0.002
654.50,0.004
655.00,0.005
655.50,0.006
656.00,0.000
656.50,0.004
657.00,0.002
657.50,0.000
658.00,0.002
658.50,0.009
659.00,0.007
659.50,0.004
660.00,0.003
660.50,0.006
661.00,0.001
661.50,0.002
662.00,-0.001
662.50,-0.002
663.00,-0.003
663.50,-0.001
664.00,-0.000
664.50,-0.002
665.00,0.001
665.50,-0.004
666.00,0.000
666.50,0.001
667.00,0.007
667.50,0.009
668.00,0.003
668.50,0.007
669.00,-0.001
669.50,0.001
670.00,-0.001
670.50,0.002
671.00,0.004
671.50,0.001
672.00,0.004
672.50,0.011
673.00,0.005
673.50,0.006
674.00,0.004
674.50,0.005
675.00,0.007
675.50,0.003
676.00,0.000
676.50,0.002
677.00,0.001
677.50,-0.001
678.00,-0.005
678.50,0.003
679.00,0.001
679.50,-0.003
680.00,0.001
680.50,0.003
681.00,0.001
681.50,-0.000
682.00,0.001
682.50,-0.003
683.00,0.002
683.50,0.006
684.00,0.001
684.50,0.003
685.00,0.002
685.50,0.005
686.00,0.001
686.50,-0.000
687.00,-0.005
687.50,-0.001
688.00,-0.002
688.50,0.004
689.00,0.000
689.50,0.001
690.00,-0.004
690.50,0.000
691.00,-0.000
691.50,0.004
692.00,0.001
692.50,0.006
693.00,0.005
693.50,0.005
694.00,-0.001
694.50,0.003
695.00,-0.001
695.50,-0.000
696.00,0.005
696.50,-0.001
697.00,0.001
697.50,-0.006
698.00,0.003
698.50,0.002
699.00,-0.001
699.50,0.006
700.00,0.008
700.50,0.004
701.00,-0.002
701.50,-0.002
702.00,0.003
702.50,0.002
703.00,0.003
703.50,-0.001
704.00,-0.002
704.50,0.005
705.00,0.004
705.50,0.003
706.00,0.012
706.50,0.012
707.00,0.009
707.50,0.008
708.00,0.002
708.50,0.004
709.00,0.007
709.50,0.006
710.00,0.002
710.50,0.007
711.00,-0.003
711.50,-0.003
712.00,-0.005
712.50,-0.003
713.00,0.006
713.50,0.006
714.00,0.006
714.50,0.006
715.00,0.001
715.50,0.002
716.00,0.004
716.50,0.005
717.00,0.007
717.50,0.008
718.00,0.006
718.50,0.007
719.00,0.008
719.50,0.003
720.00,0.003
720.50,-0.002
721.00,0.002
721.50,-0.001
722.00,0.001
722.50,0.001
723.00,0.005
723.50,0.001
724.00,-0.000
724.50,0.005
725.00,-0.000
725.50,-0.004
726.00,-0.006
726.50,0.004
727.00,-0.003
727.50,-0.003
728.00,-0.010
728.50,0.005
729.00,-0.001
729.50,0.007
730.00,0.003
730.50,-0.003
731.00,-0.001
731.50,0.003
732.00,0.001
732.50,0.008
733.00,0.002
733.50,0.005
734.00,0.004
734.50,0.004
735.00,0.003
735.50,-0.002
736.00,-0.004
736.50,-0.006
737.00,0.001
737.50,0.006
738.00,0.008
738.50,0.003
739.00,0.003
739.50,0.001
740.00,-0.002
740.50,-0.005
741.00,0.002
741.50,0.001
742.00,0.006
742.50,0.007
743.00,-0.004
743.50,-0.002
744.00,0.003
744.50,0.007
745.00,0.007
745.50,0.012
746.00,0.007
746.50,-0.000
747.00,0.002
747.50,-0.006
748.00,-0.003
748.50,0.003
749.00,0.001
749.50,-0.001
750.00,-0.006
750.50,-0.011
751.00,0.001
751.50,-0.001
752.00,0.008
752.50,0.001
753.00,-0.001
753.50,0.007
754.00,-0.003
754.50,0.010
755.00,0.003
755.50,0.001
756.00,0.003
756.50,-0.001
757.00,0.000
757.50,0.010
758.00,-0.004
758.50,0.004
759.00,0.001
759.50,-0.008
760.00,-0.005
760.50,-0.007
761.00,-0.005
761.50,-0.001
762.00,-0.004
762.50,-0.006
763.00,-0.004
763.50,0.005
764.00,0.002
764.50,-0.002
765.00,0.007
765.50,0.001
766.00,0.007
766.50,0.005
767.00,0.004
767.50,0.002
768.00,0.003
768.50,0.005
769.00,-0.001
769.50,-0.003
770.00,0.005
770.50,0.002
771.00,0.005
771.50,0.008
772.00,0.002
772.50,-0.004
773.00,-0.005
773.50,0.001
774.00,0.007
774.50,0.008
775.00,-0.004
775.50,-0.003
776.00,-0.001
776.50,0.006
777.00,0.001
777.50,0.003
778.00,0.004
778.50,-0.009
779.00,-0.003
779.50,0.005
780.00,0.009
780.50,0.003
781.00,0.002
781.50,0.005
782.00,0.003
782.50,-0.004
783.00,-0.003
783.50,-0.007
784.00,-0.007
784.50,0.001
785.00,0.003
785.50,0.003
786.00,0.003
786.50,-0.000
787.00,0.003
787.50,0.012
788.00,0.002
788.50,0.004
789.00,0.016
789.50,0.009
790.00,0.012
790.50,0.015
791.00,0.006
791.50,0.001
792.00,0.004
792.50,-0.001
793.00,0.009
793.50,-0.003
794.00,-0.002
794.50,0.013
795.00,-0.004
795.50,-0.004
796.00,-0.002
796.50,-0.004
797.00,-0.015
797.50,-0.006
798.00,-0.002
798.50,0.000
799.00,0.002
799.50,-0.013
800.00,-0.010
