"Storage 211743 - RawData - C:\Documents and Settings\uvvis\Desktop\n\File_260414_211743.spc"
"Wavelength nm.","Abs."
190.00,-0.384
190.50,-0.313
191.00,-0.328
191.50,-0.272
192.00,-0.318
192.50,-0.264
193.00,-0.282
193.50,-0.293
194.00,-0.210
194.50,-0.302
195.00,-0.233
195.50,-0.195
196.00,-0.264
196.50,-0.250
197.00,-0.225
197.50,-0.256
198.00,-0.219
198.50,-0.184
199.00,-0.146
199.50,-0.128
200.00,-0.007
200.50,-0.059
201.00,-0.056
201.50,-0.023
202.00,-0.047
202.50,-0.029
203.00,-0.042
203.50,-0.071
204.00,-0.022
204.50,-0.027
205.00,-0.040
205.50,-0.043
206.00,-0.030
206.50,0.091
207.00,0.026
207.50,5.000
208.00,-0.079
208.50,-0.073
209.00,-0.067
209.50,-0.060
210.00,-0.040
210.50,-0.025
211.00,0.124
211.50,0.108
212.00,0.123
212.50,0.151
213.00,0.338
213.50,0.136
214.00,0.212
214.50,0.111
215.00,0.037
215.50,0.094
216.00,0.066
216.50,0.086
217.00,0.094
217.50,0.097
218.00,0.090
218.50,0.078
219.00,0.075
219.50,0.077
220.00,0.058
220.50,0.065
221.00,0.066
221.50,0.064
222.00,0.073
222.50,0.081
223.00,0.073
223.50,0.068
224.00,0.079
224.50,0.078
225.00,0.072
225.50,0.068
226.00,0.075
226.50,0.063
227.00,0.054
227.50,0.067
228.00,0.064
228.50,0.065
229.00,0.066
229.50,0.060
230.00,0.053
230.50,0.055
231.00,0.048
231.50,0.059
232.00,0.049
232.50,0.057
233.00,0.042
233.50,0.034
234.00,0.029
234.50,0.041
235.00,0.034
235.50,0.031
236.00,0.044
236.50,0.040
237.00,0.037
237.50,0.022
238.00,0.024
238.50,0.034
239.00,0.025
239.50,0.027
240.00,0.022
240.50,0.024
241.00,0.032
241.50,0.027
242.00,0.023
242.50,0.014
243.00,0.021
243.50,-0.056
244.00,-0.189
244.50,-0.025
245.00,0.022
245.50,0.016
246.00,0.011
246.50,0.013
247.00,0.001
247.50,-0.001
248.00,0.007
248.50,0.006
249.00,-0.018
249.50,-0.023
250.00,-0.002
250.50,-0.014
251.00,-0.016
251.50,-0.007
252.00,-0.010
252.50,-0.020
253.00,-0.023
253.50,-0.020
254.00,-0.021
254.50,-0.041
255.00,-0.020
255.50,-0.015
256.00,-0.016
256.50,-0.031
257.00,-0.017
257.50,-0.023
258.00,-0.019
258.50,-0.162
259.00,0.039
259.50,0.014
260.00,0.514
260.50,1.747
261.00,3.539
261.50,3.397
262.00,3.838
262.50,5.000
263.00,5.000
263.50,4.312
264.00,3.564
264.50,3.838
265.00,5.000
265.50,3.473
266.00,3.946
266.50,4.312
267.00,5.000
267.50,4.786
268.00,5.000
268.50,5.000
269.00,5.000
269.50,5.000
270.00,4.786
270.50,3.838
271.00,3.946
271.50,5.000
272.00,5.000
272.50,3.564
273.00,3.838
273.50,3.838
274.00,5.000
274.50,3.838
275.00,3.252
275.50,5.000
276.00,3.751
276.50,3.751
277.00,4.312
277.50,3.751
278.00,5.000
278.50,3.564
279.00,5.000
279.50,5.000
280.00,5.000
280.50,4.092
281.00,5.000
281.50,5.000
282.00,5.000
282.50,5.000
283.00,3.516
283.50,3.679
284.00,3.564
284.50,5.000
285.00,4.786
285.50,3.946
286.00,5.000
286.50,3.347
287.00,3.679
287.50,5.000
288.00,3.946
288.50,3.397
289.00,5.000
289.50,3.617
290.00,3.838
290.50,5.000
291.00,5.000
291.50,5.000
292.00,3.679
292.50,5.000
293.00,3.946
293.50,3.946
294.00,5.000
294.50,3.473
295.00,3.363
295.50,3.946
296.00,3.617
296.50,3.838
297.00,4.092
297.50,4.786
298.00,5.000
298.50,3.516
299.00,4.786
299.50,5.000
300.00,5.000
300.50,5.000
301.00,3.304
301.50,3.838
302.00,4.312
302.50,3.679
303.00,3.617
303.50,4.092
304.00,3.494
304.50,3.679
305.00,3.252
305.50,3.265
306.00,5.000
306.50,3.033
307.00,3.184
307.50,5.000
308.00,3.347
308.50,5.000
309.00,3.143
309.50,3.751
310.00,3.946
310.50,3.056
311.00,5.000
311.50,4.487
312.00,3.106
312.50,5.000
313.00,3.363
313.50,5.000
314.00,5.000
314.50,5.000
315.00,3.080
315.50,5.000
316.00,5.000
316.50,5.000
317.00,5.000
317.50,3.252
318.00,3.414
318.50,5.000
319.00,5.000
319.50,5.000
320.00,5.000
320.50,5.000
321.00,3.946
321.50,3.679
322.00,3.838
322.50,4.092
323.00,3.217
323.50,3.494
324.00,3.072
324.50,3.304
325.00,3.332
325.50,2.619
326.00,2.648
326.50,2.462
327.00,2.242
327.50,2.172
328.00,2.035
328.50,1.857
329.00,1.805
329.50,1.591
330.00,1.508
330.50,1.383
331.00,1.285
331.50,1.195
332.00,1.111
332.50,1.052
333.00,0.947
333.50,0.952
334.00,0.882
334.50,0.795
335.00,0.747
335.50,0.697
336.00,0.666
336.50,0.606
337.00,0.566
337.50,0.539
338.00,0.507
338.50,0.466
339.00,0.414
339.50,0.393
340.00,0.369
340.50,0.351
341.00,0.323
341.50,0.318
342.00,0.299
342.50,0.273
343.00,0.251
343.50,0.235
344.00,0.197
344.50,0.196
345.00,0.191
345.50,0.187
346.00,0.171
346.50,0.157
347.00,0.147
347.50,0.145
348.00,0.144
348.50,0.124
349.00,0.118
349.50,0.096
350.00,0.103
350.50,0.093
351.00,0.088
351.50,0.096
352.00,0.089
352.50,0.081
353.00,0.084
353.50,0.074
354.00,0.061
354.50,0.059
355.00,0.070
355.50,0.054
356.00,0.058
356.50,0.073
357.00,0.054
357.50,0.053
358.00,0.062
358.50,0.055
359.00,0.056
359.50,0.043
360.00,0.042
360.50,0.043
361.00,0.045
361.50,0.042
362.00,0.046
362.50,0.052
363.00,0.048
363.50,0.045
364.00,0.051
364.50,0.038
365.00,0.050
365.50,0.055
366.00,0.044
366.50,0.037
367.00,0.045
367.50,0.047
368.00,0.048
368.50,0.046
369.00,0.028
369.50,0.029
370.00,0.037
370.50,0.037
371.00,0.040
371.50,0.037
372.00,0.033
372.50,0.033
373.00,0.040
373.50,0.038
374.00,0.052
374.50,0.043
375.00,0.042
375.50,0.041
376.00,0.038
376.50,0.045
377.00,0.042
377.50,0.037
378.00,0.029
378.50,0.038
379.00,0.033
379.50,0.028
380.00,0.033
380.50,0.036
381.00,0.042
381.50,0.037
382.00,0.039
382.50,0.033
383.00,0.036
383.50,0.028
384.00,0.037
384.50,0.036
385.00,0.041
385.50,0.037
386.00,0.041
386.50,0.041
387.00,0.037
387.50,0.034
388.00,0.038
388.50,0.041
389.00,0.040
389.50,0.031
390.00,0.030
390.50,0.034
391.00,0.032
391.50,0.034
392.00,0.034
392.50,0.038
393.00,0.039
393.50,0.039
394.00,0.042
394.50,0.037
395.00,0.043
395.50,0.040
396.00,0.032
396.50,0.033
397.00,0.031
397.50,0.039
398.00,0.041
398.50,0.040
399.00,0.037
399.50,0.035
400.00,0.036
400.50,0.043
401.00,0.045
401.50,0.041
402.00,0.042
402.50,0.040
403.00,0.029
403.50,0.034
404.00,0.038
404.50,0.042
405.00,0.045
405.50,0.046
406.00,0.038
406.50,0.044
407.00,0.040
407.50,0.035
408.00,0.036
408.50,0.036
409.00,0.039
409.50,0.035
410.00,0.042
410.50,0.042
411.00,0.041
411.50,0.040
412.00,0.042
412.50,0.046
413.00,0.039
413.50,0.039
414.00,0.038
414.50,0.034
415.00,0.035
415.50,0.033
416.00,0.034
416.50,0.043
417.00,0.044
417.50,0.037
418.00,0.042
418.50,0.041
419.00,0.040
419.50,0.036
420.00,0.039
420.50,0.038
421.00,0.039
421.50,0.039
422.00,0.037
422.50,0.036
423.00,0.042
423.50,0.040
424.00,0.037
424.50,0.043
425.00,0.041
425.50,0.043
426.00,0.042
426.50,0.044
427.00,0.041
427.50,0.038
428.00,0.044
428.50,0.037
429.00,0.036
429.50,0.042
430.00,0.038
430.50,0.036
431.00,0.038
431.50,0.036
432.00,0.037
432.50,0.040
433.00,0.044
433.50,0.042
434.00,0.042
434.50,0.040
435.00,0.037
435.50,0.035
436.00,0.039
436.50,0.042
437.00,0.041
437.50,0.037
438.00,0.041
438.50,0.040
439.00,0.037
439.50,0.038
440.00,0.037
440.50,0.039
441.00,0.039
441.50,0.041
442.00,0.039
442.50,0.038
443.00,0.039
443.50,0.041
444.00,0.039
444.50,0.039
445.00,0.046
445.50,0.040
446.00,0.038
446.50,0.041
447.00,0.037
447.50,0.041
448.00,0.037
448.50,0.039
449.00,0.043
449.50,0.041
450.00,0.038
450.50,0.039
451.00,0.039
451.50,0.040
452.00,0.040
452.50,0.040
453.00,0.041
453.50,0.042
454.00,0.043
454.50,0.044
455.00,0.039
455.50,0.038
456.00,0.037
456.50,0.044
457.00,0.041
457.50,0.041
458.00,0.043
458.50,0.039
459.00,0.041
459.50,0.041
460.00,0.043
460.50,0.040
461.00,0.043
461.50,0.042
462.00,0.037
462.50,0.039
463.00,0.036
463.50,0.038
464.00,0.036
464.50,0.037
465.00,0.039
465.50,0.039
466.00,0.039
466.50,0.043
467.00,0.046
467.50,0.045
468.00,0.043
468.50,0.043
469.00,0.041
469.50,0.041
470.00,0.043
470.50,0.041
471.00,0.043
471.50,0.042
472.00,0.039
472.50,0.041
473.00,0.041
473.50,0.040
474.00,0.038
474.50,0.039
475.00,0.039
475.50,0.038
476.00,0.038
476.50,0.036
477.00,0.037
477.50,0.039
478.00,0.040
478.50,0.042
479.00,0.041
479.50,0.039
480.00,0.041
480.50,0.039
481.00,0.041
481.50,0.042
482.00,0.039
482.50,0.039
483.00,0.042
483.50,0.044
484.00,0.048
484.50,0.042
485.00,0.041
485.50,0.041
486.00,0.039
486.50,0.046
487.00,0.040
487.50,0.042
488.00,0.037
488.50,0.042
489.00,0.038
489.50,0.039
490.00,0.036
490.50,0.037
491.00,0.042
491.50,0.042
492.00,0.040
492.50,0.042
493.00,0.039
493.50,0.040
494.00,0.042
494.50,0.039
495.00,0.042
495.50,0.041
496.00,0.043
496.50,0.042
497.00,0.039
497.50,0.039
498.00,0.044
498.50,0.041
499.00,0.043
499.50,0.041
500.00,0.045
500.50,0.045
501.00,0.042
501.50,0.042
502.00,0.040
502.50,0.041
503.00,0.042
503.50,0.043
504.00,0.042
504.50,0.040
505.00,0.042
505.50,0.043
506.00,0.043
506.50,0.046
507.00,0.041
507.50,0.037
508.00,0.044
508.50,0.043
509.00,0.039
509.50,0.038
510.00,0.039
510.50,0.037
511.00,0.038
511.50,0.036
512.00,0.033
512.50,0.037
513.00,0.043
513.50,0.043
514.00,0.042
514.50,0.041
515.00,0.041
515.50,0.037
516.00,0.043
516.50,0.038
517.00,0.041
517.50,0.044
518.00,0.043
518.50,0.042
519.00,0.043
519.50,0.043
520.00,0.042
520.50,0.040
521.00,0.043
521.50,0.041
522.00,0.039
522.50,0.040
523.00,0.038
523.50,0.039
524.00,0.040
524.50,0.037
525.00,0.044
525.50,0.040
526.00,0.037
526.50,0.041
527.00,0.045
527.50,0.038
528.00,0.039
528.50,0.038
529.00,0.039
529.50,0.036
530.00,0.039
530.50,0.038
531.00,0.037
531.50,0.037
532.00,0.037
532.50,0.041
533.00,0.040
533.50,0.038
534.00,0.039
534.50,0.045
535.00,0.041
535.50,0.041
536.00,0.041
536.50,0.041
537.00,0.043
537.50,0.040
538.00,0.037
538.50,0.038
539.00,0.039
539.50,0.042
540.00,0.039
540.50,0.039
541.00,0.038
541.50,0.042
542.00,0.041
542.50,0.038
543.00,0.040
543.50,0.037
544.00,0.037
544.50,0.039
545.00,0.035
545.50,0.039
546.00,0.036
546.50,0.039
547.00,0.042
547.50,0.042
548.00,0.037
548.50,0.040
549.00,0.043
549.50,0.038
550.00,0.041
550.50,0.040
551.00,0.045
551.50,0.044
552.00,0.042
552.50,0.043
553.00,0.043
553.50,0.039
554.00,0.044
554.50,0.043
555.00,0.039
555.50,0.045
556.00,0.040
556.50,0.042
557.00,0.038
557.50,0.038
558.00,0.041
558.50,0.040
559.00,0.038
559.50,0.040
560.00,0.039
560.50,0.037
561.00,0.041
561.50,0.041
562.00,0.041
562.50,0.037
563.00,0.037
563.50,0.038
564.00,0.040
564.50,0.042
565.00,0.044
565.50,0.042
566.00,0.039
566.50,0.043
567.00,0.043
567.50,0.043
568.00,0.040
568.50,0.039
569.00,0.042
569.50,0.042
570.00,0.043
570.50,0.044
571.00,0.037
571.50,0.042
572.00,0.044
572.50,0.040
573.00,0.035
573.50,0.038
574.00,0.038
574.50,0.042
575.00,0.040
575.50,0.039
576.00,0.038
576.50,0.037
577.00,0.042
577.50,0.042
578.00,0.040
578.50,0.039
579.00,0.036
579.50,0.039
580.00,0.039
580.50,0.038
581.00,0.040
581.50,0.039
582.00,0.042
582.50,0.040
583.00,0.041
583.50,0.041
584.00,0.041
584.50,0.040
585.00,0.040
585.50,0.038
586.00,0.042
586.50,0.044
587.00,0.044
587.50,0.042
588.00,0.036
588.50,0.037
589.00,0.036
589.50,0.040
590.00,0.042
590.50,0.042
591.00,0.037
591.50,0.041
592.00,0.040
592.50,0.033
593.00,0.037
593.50,0.039
594.00,0.042
594.50,0.039
595.00,0.040
595.50,0.043
596.00,0.040
596.50,0.041
597.00,0.043
597.50,0.041
598.00,0.039
598.50,0.040
599.00,0.040
599.50,0.041
600.00,0.037
600.50,0.041
601.00,0.041
601.50,0.040
602.00,0.041
602.50,0.037
603.00,0.043
603.50,0.043
604.00,0.042
604.50,0.039
605.00,0.040
605.50,0.039
606.00,0.037
606.50,0.038
607.00,0.039
607.50,0.043
608.00,0.043
608.50,0.041
609.00,0.041
609.50,0.043
610.00,0.042
610.50,0.042
611.00,0.042
611.50,0.038
612.00,0.042
612.50,0.042
613.00,0.048
613.50,0.043
614.00,0.041
614.50,0.039
615.00,0.038
615.50,0.038
616.00,0.039
616.50,0.042
617.00,0.034
617.50,0.041
618.00,0.041
618.50,0.039
619.00,0.041
619.50,0.040
620.00,0.045
620.50,0.046
621.00,0.042
621.50,0.042
622.00,0.039
622.50,0.040
623.00,0.038
623.50,0.039
624.00,0.035
624.50,0.039
625.00,0.037
625.50,0.038
626.00,0.040
626.50,0.035
627.00,0.044
627.50,0.039
628.00,0.041
628.50,0.043
629.00,0.042
629.50,0.039
630.00,0.041
630.50,0.041
631.00,0.041
631.50,0.044
632.00,0.038
632.50,0.037
633.00,0.040
633.50,0.044
634.00,0.043
634.50,0.042
635.00,0.044
635.50,0.039
636.00,0.039
636.50,0.038
637.00,0.039
637.50,0.036
638.00,0.038
638.50,0.036
639.00,0.038
639.50,0.040
640.00,0.036
640.50,0.039
641.00,0.038
641.50,0.035
642.00,0.039
642.50,0.039
643.00,0.037
643.50,0.037
644.00,0.040
644.50,0.043
645.00,0.040
645.50,0.038
646.00,0.039
646.50,0.038
647.00,0.042
647.50,0.040
648.00,0.037
648.50,0.039
649.00,0.037
649.50,0.037
650.00,0.040
650.50,0.040
651.00,0.038
651.50,0.041
652.00,0.040
652.50,0.040
653.00,0.037
653.50,0.035
654.00,0.038
654.50,0.042
655.00,0.040
655.50,0.041
656.00,0.040
656.50,0.041
657.00,0.041
657.50,0.040
658.00,0.038
658.50,0.045
659.00,0.042
659.50,0.040
660.00,0.050
660.50,0.044
661.00,0.041
661.50,0.039
662.00,0.035
662.50,0.035
663.00,0.038
663.50,0.039
664.00,0.040
664.50,0.041
665.00,0.037
665.50,0.037
666.00,0.037
666.50,0.045
667.00,0.041
667.50,0.044
668.00,0.043
668.50,0.042
669.00,0.038
669.50,0.037
670.00,0.040
670.50,0.036
671.00,0.042
671.50,0.044
672.00,0.038
672.50,0.039
673.00,0.042
673.50,0.042
674.00,0.037
674.50,0.046
675.00,0.045
675.50,0.040
676.00,0.039
676.50,0.041
677.00,0.039
677.50,0.038
678.00,0.037
678.50,0.042
679.00,0.035
679.50,0.038
680.00,0.040
680.50,0.034
681.00,0.034
681.50,0.038
682.00,0.042
682.50,0.036
683.00,0.037
683.50,0.036
684.00,0.040
684.50,0.037
685.00,0.042
685.50,0.035
686.00,0.038
686.50,0.039
687.00,0.039
687.50,0.036
688.00,0.040
688.50,0.040
689.00,0.036
689.50,0.033
690.00,0.039
690.50,0.043
691.00,0.041
691.50,0.043
692.00,0.041
692.50,0.046
693.00,0.042
693.50,0.046
694.00,0.043
694.50,0.045
695.00,0.041
695.50,0.041
696.00,0.041
696.50,0.039
697.00,0.036
697.50,0.042
698.00,0.036
698.50,0.046
699.00,0.042
699.50,0.045
700.00,0.047
700.50,0.040
701.00,0.043
701.50,0.040
702.00,0.043
702.50,0.044
703.00,0.040
703.50,0.038
704.00,0.043
704.50,0.044
705.00,0.045
705.50,0.044
706.00,0.040
706.50,0.047
707.00,0.045
707.50,0.046
708.00,0.053
708.50,0.046
709.00,0.047
709.50,0.047
710.00,0.046
710.50,0.041
711.00,0.040
711.50,0.040
712.00,0.041
712.50,0.036
713.00,0.049
713.50,0.044
714.00,0.040
714.50,0.045
715.00,0.047
715.50,0.053
716.00,0.043
716.50,0.046
717.00,0.045
717.50,0.040
718.00,0.043
718.50,0.041
719.00,0.046
719.50,0.048
720.00,0.044
720.50,0.042
721.00,0.035
721.50,0.043
722.00,0.045
722.50,0.038
723.00,0.042
723.50,0.040
724.00,0.044
724.50,0.039
725.00,0.038
725.50,0.035
726.00,0.043
726.50,0.029
727.00,0.039
727.50,0.038
728.00,0.032
728.50,0.042
729.00,0.046
729.50,0.047
730.00,0.044
730.50,0.046
731.00,0.040
731.50,0.046
732.00,0.040
732.50,0.046
733.00,0.045
733.50,0.043
734.00,0.036
734.50,0.041
735.00,0.038
735.50,0.044
736.00,0.042
736.50,0.045
737.00,0.043
737.50,0.039
738.00,0.036
738.50,0.042
739.00,0.036
739.50,0.028
740.00,0.028
740.50,0.030
741.00,0.039
741.50,0.045
742.00,0.048
742.50,0.043
743.00,0.045
743.50,0.043
744.00,0.031
744.50,0.038
745.00,0.044
745.50,0.044
746.00,0.048
746.50,0.040
747.00,0.038
747.50,0.038
748.00,0.045
748.50,0.043
749.00,0.039
749.50,0.040
750.00,0.038
750.50,0.046
751.00,0.040
751.50,0.040
752.00,0.052
752.50,0.035
753.00,0.041
753.50,0.045
754.00,0.042
754.50,0.043
755.00,0.051
755.50,0.047
756.00,0.042
756.50,0.037
757.00,0.033
757.50,0.045
758.00,0.038
758.50,0.037
759.00,0.033
759.50,0.037
760.00,0.033
760.50,0.029
761.00,0.040
761.50,0.033
762.00,0.039
762.50,0.033
763.00,0.036
763.50,0.045
764.00,0.042
764.50,0.039
765.00,0.042
765.50,0.050
766.00,0.045
766.50,0.042
767.00,0.048
767.50,0.044
768.00,0.042
768.50,0.040
769.00,0.044
769.50,0.037
770.00,0.027
770.50,0.037
771.00,0.043
771.50,0.042
772.00,0.045
772.50,0.050
773.00,0.039
773.50,0.049
774.00,0.048
774.50,0.046
775.00,0.055
775.50,0.042
776.00,0.035
776.50,0.035
777.00,0.036
777.50,0.046
778.00,0.038
778.50,0.047
779.00,0.043
779.50,0.045
780.00,0.046
780.50,0.050
781.00,0.043
781.50,0.037
782.00,0.036
782.50,0.037
783.00,0.043
783.50,0.044
784.00,0.033
784.50,0.026
785.00,0.038
785.50,0.036
786.00,0.033
786.50,0.036
787.00,0.034
787.50,0.047
788.00,0.039
788.50,0.038
789.00,0.046
789.50,0.042
790.00,0.048
790.50,0.038
791.00,0.043
791.50,0.053
792.00,0.034
792.50,0.041
793.00,0.046
793.50,0.031
794.00,0.036
794.50,0.041
795.00,0.039
795.50,0.044
796.00,0.043
796.50,0.037
797.00,0.027
797.50,0.035
798.00,0.042
798.50,0.046
799.00,0.029
799.50,0.036
800.00,0.031
