"Storage 212309 - RawData - C:\Documents and Settings\uvvis\Desktop\n\File_260414_212309.spc"
"Wavelength nm.","Abs."
190.00,5.000
190.50,5.000
191.00,5.000
191.50,5.000
192.00,2.095
192.50,1.448
193.00,2.051
193.50,1.847
194.00,1.735
194.50,1.692
195.00,5.000
195.50,5.000
196.00,5.000
196.50,2.050
197.00,2.079
197.50,2.676
198.00,5.000
198.50,5.000
199.00,2.358
199.50,2.197
200.00,3.277
200.50,2.364
201.00,5.000
201.50,4.312
202.00,5.000
202.50,5.000
203.00,5.000
203.50,5.000
204.00,3.048
204.50,2.666
205.00,5.000
205.50,3.048
206.00,3.838
206.50,5.000
207.00,5.000
207.50,5.000
208.00,5.000
208.50,5.000
209.00,5.000
209.50,3.184
210.00,2.642
210.50,3.290
211.00,2.947
211.50,5.000
212.00,5.000
212.50,5.000
213.00,5.000
213.50,5.000
214.00,3.089
214.50,3.252
215.00,5.000
215.50,5.000
216.00,3.889
216.50,2.935
217.00,2.947
217.50,3.124
218.00,3.163
218.50,5.000
219.00,5.000
219.50,3.889
220.00,5.000
220.50,5.000
221.00,5.000
221.50,4.013
222.00,5.000
222.50,5.000
223.00,3.679
223.50,5.000
224.00,5.000
224.50,3.946
225.00,5.000
225.50,3.304
226.00,5.000
226.50,5.000
227.00,4.312
227.50,5.000
228.00,5.000
228.50,3.838
229.00,5.000
229.50,5.000
230.00,3.097
230.50,5.000
231.00,3.647
231.50,5.000
232.00,3.494
232.50,5.000
233.00,5.000
233.50,4.312
234.00,5.000
234.50,5.000
235.00,5.000
235.50,5.000
236.00,3.793
236.50,5.000
237.00,3.946
237.50,3.494
238.00,5.000
238.50,5.000
239.00,5.000
239.50,4.312
240.00,4.786
240.50,3.318
241.00,5.000
241.50,4.092
242.00,4.092
242.50,4.092
243.00,4.312
243.50,3.838
244.00,4.786
244.50,3.793
245.00,4.092
245.50,5.000
246.00,3.590
246.50,3.946
247.00,3.751
247.50,5.000
248.00,5.000
248.50,3.414
249.00,3.946
249.50,5.000
250.00,3.838
250.50,5.000
251.00,5.000
251.50,5.000
252.00,4.786
252.50,5.000
253.00,5.000
253.50,5.000
254.00,5.000
254.50,3.946
255.00,4.312
255.50,5.000
256.00,3.946
256.50,5.000
257.00,5.000
257.50,5.000
258.00,3.838
258.50,3.946
259.00,5.000
259.50,5.000
260.00,3.751
260.50,4.312
261.00,5.000
261.50,4.092
262.00,5.000
262.50,3.946
263.00,4.312
263.50,3.679
264.00,3.617
264.50,5.000
265.00,5.000
265.50,3.564
266.00,3.751
266.50,5.000
267.00,4.786
267.50,3.564
268.00,5.000
268.50,5.000
269.00,5.000
269.50,5.000
270.00,5.000
270.50,5.000
271.00,3.838
271.50,4.786
272.00,3.380
272.50,4.786
273.00,4.092
273.50,5.000
274.00,3.679
274.50,5.000
275.00,3.751
275.50,3.617
276.00,3.838
276.50,5.000
277.00,4.312
277.50,3.838
278.00,5.000
278.50,4.786
279.00,4.786
279.50,3.679
280.00,3.617
280.50,3.838
281.00,4.786
281.50,4.092
282.00,5.000
282.50,3.516
283.00,3.414
283.50,3.946
284.00,3.516
284.50,3.617
285.00,3.617
285.50,3.946
286.00,4.786
286.50,5.000
287.00,3.265
287.50,5.000
288.00,3.946
288.50,3.473
289.00,3.679
289.50,5.000
290.00,3.564
290.50,3.679
291.00,5.000
291.50,3.751
292.00,3.946
292.50,5.000
293.00,3.433
293.50,5.000
294.00,4.786
294.50,5.000
295.00,3.946
295.50,5.000
296.00,4.312
296.50,4.092
297.00,4.092
297.50,3.056
298.00,3.494
298.50,2.991
299.00,3.397
299.50,5.000
300.00,3.347
300.50,3.228
301.00,5.000
301.50,5.000
302.00,5.000
302.50,3.380
303.00,4.786
303.50,3.617
304.00,3.564
304.50,3.332
305.00,5.000
305.50,3.124
306.00,3.277
306.50,3.494
307.00,3.332
307.50,3.414
308.00,3.106
308.50,4.312
309.00,4.312
309.50,5.000
310.00,5.000
310.50,3.048
311.00,3.153
311.50,3.397
312.00,3.041
312.50,5.000
313.00,4.092
313.50,5.000
314.00,3.124
314.50,3.679
315.00,3.414
315.50,3.097
316.00,2.716
316.50,2.706
317.00,2.450
317.50,2.284
318.00,2.238
318.50,2.091
319.00,1.976
319.50,1.835
320.00,1.761
320.50,1.712
321.00,1.556
321.50,1.413
322.00,1.331
322.50,1.231
323.00,1.153
323.50,1.047
324.00,0.989
324.50,0.905
325.00,0.866
325.50,0.773
326.00,0.701
326.50,0.699
327.00,0.632
327.50,0.609
328.00,0.555
328.50,0.496
329.00,0.488
329.50,0.438
330.00,0.414
330.50,0.374
331.00,0.356
331.50,0.354
332.00,0.305
332.50,0.313
333.00,0.285
333.50,0.259
334.00,0.237
334.50,0.241
335.00,0.221
335.50,0.194
336.00,0.171
336.50,0.177
337.00,0.171
337.50,0.165
338.00,0.145
338.50,0.131
339.00,0.121
339.50,0.102
340.00,0.107
340.50,0.091
341.00,0.102
341.50,0.084
342.00,0.083
342.50,0.075
343.00,0.061
343.50,0.060
344.00,0.057
344.50,0.053
345.00,0.063
345.50,0.066
346.00,0.057
346.50,0.044
347.00,0.048
347.50,0.054
348.00,0.046
348.50,0.037
349.00,0.033
349.50,0.040
350.00,0.030
350.50,0.031
351.00,0.024
351.50,0.023
352.00,0.022
352.50,0.037
353.00,0.019
353.50,0.031
354.00,0.021
354.50,0.025
355.00,0.024
355.50,0.021
356.00,0.002
356.50,0.014
357.00,0.024
357.50,0.020
358.00,0.031
358.50,0.022
359.00,0.011
359.50,0.008
360.00,0.017
360.50,0.031
361.00,0.024
361.50,0.021
362.00,0.016
362.50,0.019
363.00,0.026
363.50,0.025
364.00,0.017
364.50,0.012
365.00,0.001
365.50,0.010
366.00,0.023
366.50,0.016
367.00,0.008
367.50,0.011
368.00,0.012
368.50,0.019
369.00,0.019
369.50,0.010
370.00,0.014
370.50,0.017
371.00,0.020
371.50,0.015
372.00,0.015
372.50,0.016
373.00,0.021
373.50,0.020
374.00,0.016
374.50,0.018
375.00,0.015
375.50,0.023
376.00,0.019
376.50,0.012
377.00,0.007
377.50,0.012
378.00,0.015
378.50,0.019
379.00,0.016
379.50,0.007
380.00,0.016
380.50,0.012
381.00,0.010
381.50,0.009
382.00,0.014
382.50,0.009
383.00,0.009
383.50,0.014
384.00,0.016
384.50,0.017
385.00,0.015
385.50,0.019
386.00,0.020
386.50,0.016
387.00,0.019
387.50,0.020
388.00,0.024
388.50,0.020
389.00,0.017
389.50,0.018
390.00,0.012
390.50,0.006
391.00,0.013
391.50,0.020
392.00,0.017
392.50,0.022
393.00,0.020
393.50,0.021
394.00,0.016
394.50,0.013
395.00,0.019
395.50,0.016
396.00,0.014
396.50,0.009
397.00,0.013
397.50,0.017
398.00,0.016
398.50,0.014
399.00,0.017
399.50,0.021
400.00,0.015
400.50,0.022
401.00,0.018
401.50,0.023
402.00,0.017
402.50,0.019
403.00,0.011
403.50,0.013
404.00,0.016
404.50,0.016
405.00,0.021
405.50,0.019
406.00,0.021
406.50,0.017
407.00,0.013
407.50,0.013
408.00,0.016
408.50,0.010
409.00,0.017
409.50,0.014
410.00,0.013
410.50,0.013
411.00,0.021
411.50,0.017
412.00,0.019
412.50,0.023
413.00,0.021
413.50,0.024
414.00,0.012
414.50,0.013
415.00,0.007
415.50,0.010
416.00,0.013
416.50,0.014
417.00,0.013
417.50,0.019
418.00,0.016
418.50,0.022
419.00,0.016
419.50,0.017
420.00,0.012
420.50,0.015
421.00,0.015
421.50,0.020
422.00,0.019
422.50,0.014
423.00,0.015
423.50,0.016
424.00,0.018
424.50,0.015
425.00,0.019
425.50,0.017
426.00,0.020
426.50,0.019
427.00,0.020
427.50,0.017
428.00,0.014
428.50,0.017
429.00,0.016
429.50,0.012
430.00,0.013
430.50,0.019
431.00,0.010
431.50,0.013
432.00,0.019
432.50,0.017
433.00,0.015
433.50,0.012
434.00,0.018
434.50,0.017
435.00,0.020
435.50,0.016
436.00,0.018
436.50,0.015
437.00,0.015
437.50,0.015
438.00,0.015
438.50,0.013
439.00,0.011
439.50,0.010
440.00,0.016
440.50,0.019
441.00,0.016
441.50,0.015
442.00,0.015
442.50,0.018
443.00,0.019
443.50,0.013
444.00,0.014
444.50,0.014
445.00,0.014
445.50,0.018
446.00,0.018
446.50,0.017
447.00,0.014
447.50,0.019
448.00,0.017
448.50,0.015
449.00,0.014
449.50,0.017
450.00,0.017
450.50,0.021
451.00,0.013
451.50,0.021
452.00,0.018
452.50,0.011
453.00,0.019
453.50,0.013
454.00,0.014
454.50,0.017
455.00,0.020
455.50,0.016
456.00,0.012
456.50,0.014
457.00,0.015
457.50,0.013
458.00,0.015
458.50,0.016
459.00,0.015
459.50,0.013
460.00,0.017
460.50,0.015
461.00,0.012
461.50,0.015
462.00,0.013
462.50,0.013
463.00,0.010
463.50,0.010
464.00,0.013
464.50,0.016
465.00,0.016
465.50,0.014
466.00,0.018
466.50,0.020
467.00,0.023
467.50,0.017
468.00,0.020
468.50,0.019
469.00,0.018
469.50,0.015
470.00,0.017
470.50,0.017
471.00,0.015
471.50,0.016
472.00,0.015
472.50,0.014
473.00,0.016
473.50,0.015
474.00,0.012
474.50,0.017
475.00,0.014
475.50,0.013
476.00,0.015
476.50,0.011
477.00,0.010
477.50,0.013
478.00,0.017
478.50,0.014
479.00,0.016
479.50,0.016
480.00,0.018
480.50,0.016
481.00,0.013
481.50,0.016
482.00,0.015
482.50,0.015
483.00,0.018
483.50,0.022
484.00,0.017
484.50,0.018
485.00,0.020
485.50,0.019
486.00,0.019
486.50,0.018
487.00,0.021
487.50,0.019
488.00,0.014
488.50,0.016
489.00,0.018
489.50,0.017
490.00,0.014
490.50,0.016
491.00,0.015
491.50,0.015
492.00,0.015
492.50,0.017
493.00,0.015
493.50,0.017
494.00,0.016
494.50,0.017
495.00,0.020
495.50,0.015
496.00,0.016
496.50,0.017
497.00,0.017
497.50,0.013
498.00,0.016
498.50,0.017
499.00,0.017
499.50,0.017
500.00,0.017
500.50,0.018
501.00,0.020
501.50,0.016
502.00,0.013
502.50,0.016
503.00,0.020
503.50,0.019
504.00,0.014
504.50,0.015
505.00,0.013
505.50,0.015
506.00,0.016
506.50,0.016
507.00,0.016
507.50,0.016
508.00,0.019
508.50,0.017
509.00,0.015
509.50,0.014
510.00,0.015
510.50,0.015
511.00,0.015
511.50,0.011
512.00,0.012
512.50,0.015
513.00,0.018
513.50,0.023
514.00,0.022
514.50,0.018
515.00,0.017
515.50,0.019
516.00,0.018
516.50,0.012
517.00,0.014
517.50,0.017
518.00,0.015
518.50,0.016
519.00,0.018
519.50,0.016
520.00,0.017
520.50,0.015
521.00,0.017
521.50,0.017
522.00,0.017
522.50,0.012
523.00,0.014
523.50,0.020
524.00,0.018
524.50,0.019
525.00,0.016
525.50,0.015
526.00,0.014
526.50,0.017
527.00,0.017
527.50,0.014
528.00,0.018
528.50,0.016
529.00,0.014
529.50,0.013
530.00,0.015
530.50,0.010
531.00,0.012
531.50,0.012
532.00,0.014
532.50,0.014
533.00,0.012
533.50,0.015
534.00,0.016
534.50,0.014
535.00,0.010
535.50,0.011
536.00,0.015
536.50,0.019
537.00,0.013
537.50,0.016
538.00,0.016
538.50,0.014
539.00,0.017
539.50,0.016
540.00,0.015
540.50,0.016
541.00,0.020
541.50,0.017
542.00,0.016
542.50,0.019
543.00,0.016
543.50,0.013
544.00,0.015
544.50,0.016
545.00,0.014
545.50,0.018
546.00,0.016
546.50,0.014
547.00,0.015
547.50,0.018
548.00,0.018
548.50,0.019
549.00,0.013
549.50,0.016
550.00,0.015
550.50,0.017
551.00,0.015
551.50,0.018
552.00,0.018
552.50,0.017
553.00,0.015
553.50,0.015
554.00,0.017
554.50,0.019
555.00,0.018
555.50,0.019
556.00,0.018
556.50,0.014
557.00,0.015
557.50,0.018
558.00,0.014
558.50,0.017
559.00,0.015
559.50,0.016
560.00,0.016
560.50,0.014
561.00,0.014
561.50,0.018
562.00,0.016
562.50,0.018
563.00,0.014
563.50,0.014
564.00,0.017
564.50,0.018
565.00,0.016
565.50,0.016
566.00,0.015
566.50,0.015
567.00,0.016
567.50,0.016
568.00,0.018
568.50,0.019
569.00,0.015
569.50,0.021
570.00,0.018
570.50,0.020
571.00,0.018
571.50,0.020
572.00,0.014
572.50,0.016
573.00,0.010
573.50,0.016
574.00,0.018
574.50,0.019
575.00,0.015
575.50,0.018
576.00,0.018
576.50,0.016
577.00,0.010
577.50,0.013
578.00,0.013
578.50,0.013
579.00,0.016
579.50,0.016
580.00,0.017
580.50,0.016
581.00,0.014
581.50,0.016
582.00,0.014
582.50,0.016
583.00,0.018
583.50,0.018
584.00,0.018
584.50,0.019
585.00,0.016
585.50,0.020
586.00,0.018
586.50,0.017
587.00,0.020
587.50,0.017
588.00,0.014
588.50,0.014
589.00,0.012
589.50,0.018
590.00,0.016
590.50,0.015
591.00,0.013
591.50,0.017
592.00,0.019
592.50,0.016
593.00,0.013
593.50,0.013
594.00,0.015
594.50,0.017
595.00,0.016
595.50,0.016
596.00,0.019
596.50,0.018
597.00,0.021
597.50,0.017
598.00,0.017
598.50,0.017
599.00,0.020
599.50,0.019
600.00,0.017
600.50,0.018
601.00,0.015
601.50,0.014
602.00,0.016
602.50,0.015
603.00,0.017
603.50,0.018
604.00,0.018
604.50,0.016
605.00,0.014
605.50,0.014
606.00,0.016
606.50,0.018
607.00,0.019
607.50,0.018
608.00,0.019
608.50,0.021
609.00,0.019
609.50,0.017
610.00,0.016
610.50,0.016
611.00,0.016
611.50,0.014
612.00,0.017
612.50,0.019
613.00,0.021
613.50,0.021
614.00,0.014
614.50,0.017
615.00,0.017
615.50,0.015
616.00,0.014
616.50,0.014
617.00,0.015
617.50,0.013
618.00,0.017
618.50,0.015
619.00,0.017
619.50,0.019
620.00,0.022
620.50,0.018
621.00,0.018
621.50,0.018
622.00,0.009
622.50,0.014
623.00,0.014
623.50,0.011
624.00,0.018
624.50,0.016
625.00,0.016
625.50,0.015
626.00,0.018
626.50,0.015
627.00,0.016
627.50,0.014
628.00,0.015
628.50,0.022
629.00,0.019
629.50,0.019
630.00,0.019
630.50,0.021
631.00,0.016
631.50,0.014
632.00,0.012
632.50,0.015
633.00,0.013
633.50,0.012
634.00,0.013
634.50,0.021
635.00,0.017
635.50,0.017
636.00,0.014
636.50,0.014
637.00,0.012
637.50,0.013
638.00,0.008
638.50,0.010
639.00,0.012
639.50,0.020
640.00,0.018
640.50,0.018
641.00,0.016
641.50,0.013
642.00,0.016
642.50,0.017
643.00,0.014
643.50,0.018
644.00,0.015
644.50,0.018
645.00,0.016
645.50,0.014
646.00,0.018
646.50,0.011
647.00,0.012
647.50,0.010
648.00,0.018
648.50,0.017
649.00,0.020
649.50,0.013
650.00,0.013
650.50,0.013
651.00,0.019
651.50,0.020
652.00,0.016
652.50,0.011
653.00,0.015
653.50,0.017
654.00,0.015
654.50,0.014
655.00,0.018
655.50,0.016
656.00,0.017
656.50,0.015
657.00,0.016
657.50,0.015
658.00,0.014
658.50,0.018
659.00,0.022
659.50,0.018
660.00,0.016
660.50,0.020
661.00,0.017
661.50,0.019
662.00,0.015
662.50,0.012
663.00,0.011
663.50,0.006
664.00,0.014
664.50,0.015
665.00,0.015
665.50,0.016
666.00,0.014
666.50,0.018
667.00,0.021
667.50,0.023
668.00,0.020
668.50,0.015
669.00,0.016
669.50,0.015
670.00,0.017
670.50,0.018
671.00,0.018
671.50,0.017
672.00,0.019
672.50,0.018
673.00,0.020
673.50,0.017
674.00,0.013
674.50,0.018
675.00,0.016
675.50,0.016
676.00,0.021
676.50,0.017
677.00,0.015
677.50,0.021
678.00,0.018
678.50,0.013
679.00,0.014
679.50,0.012
680.00,0.012
680.50,0.014
681.00,0.020
681.50,0.019
682.00,0.016
682.50,0.015
683.00,0.012
683.50,0.012
684.00,0.017
684.50,0.018
685.00,0.011
685.50,0.016
686.00,0.019
686.50,0.015
687.00,0.012
687.50,0.011
688.00,0.009
688.50,0.014
689.00,0.018
689.50,0.014
690.00,0.016
690.50,0.012
691.00,0.014
691.50,0.013
692.00,0.017
692.50,0.014
693.00,0.019
693.50,0.021
694.00,0.011
694.50,0.014
695.00,0.019
695.50,0.012
696.00,0.013
696.50,0.017
697.00,0.017
697.50,0.012
698.00,0.014
698.50,0.019
699.00,0.022
699.50,0.019
700.00,0.019
700.50,0.015
701.00,0.015
701.50,0.014
702.00,0.014
702.50,0.017
703.00,0.015
703.50,0.018
704.00,0.015
704.50,0.011
705.00,0.013
705.50,0.021
706.00,0.021
706.50,0.021
707.00,0.020
707.50,0.019
708.00,0.021
708.50,0.021
709.00,0.022
709.50,0.017
710.00,0.011
710.50,0.013
711.00,0.009
711.50,0.011
712.00,0.012
712.50,0.014
713.00,0.016
713.50,0.022
714.00,0.019
714.50,0.015
715.00,0.010
715.50,0.016
716.00,0.015
716.50,0.019
717.00,0.023
717.50,0.016
718.00,0.015
718.50,0.023
719.00,0.020
719.50,0.022
720.00,0.017
720.50,0.018
721.00,0.012
721.50,0.022
722.00,0.018
722.50,0.019
723.00,0.017
723.50,0.020
724.00,0.020
724.50,0.018
725.00,0.007
725.50,0.017
726.00,0.012
726.50,0.012
727.00,0.012
727.50,0.016
728.00,0.007
728.50,0.017
729.00,0.016
729.50,0.019
730.00,0.014
730.50,0.017
731.00,0.006
731.50,0.009
732.00,0.020
732.50,0.018
733.00,0.025
733.50,0.017
734.00,0.014
734.50,0.016
735.00,0.014
735.50,0.017
736.00,0.009
736.50,0.016
737.00,0.021
737.50,0.015
738.00,0.015
738.50,0.017
739.00,0.017
739.50,0.019
740.00,0.013
740.50,0.008
741.00,0.016
741.50,0.016
742.00,0.024
742.50,0.025
743.00,0.018
743.50,0.018
744.00,0.012
744.50,0.019
745.00,0.018
745.50,0.027
746.00,0.021
746.50,0.012
747.00,0.018
747.50,0.016
748.00,0.018
748.50,0.012
749.00,0.013
749.50,0.014
750.00,0.013
750.50,0.011
751.00,0.020
751.50,0.018
752.00,0.028
752.50,0.019
753.00,0.017
753.50,0.018
754.00,0.017
754.50,0.015
755.00,0.017
755.50,0.017
756.00,0.015
756.50,0.017
757.00,0.023
757.50,0.021
758.00,0.017
758.50,0.009
759.00,0.018
759.50,0.012
760.00,0.007
760.50,0.002
761.00,0.006
761.50,0.011
762.00,0.012
762.50,0.015
763.00,0.020
763.50,0.018
764.00,0.018
764.50,0.016
765.00,0.022
765.50,0.022
766.00,0.018
766.50,0.007
767.00,0.021
767.50,0.024
768.00,0.023
768.50,0.017
769.00,0.013
769.50,0.009
770.00,0.010
770.50,0.016
771.00,0.011
771.50,0.020
772.00,0.021
772.50,0.022
773.00,0.026
773.50,0.019
774.00,0.012
774.50,0.024
775.00,0.019
775.50,0.009
776.00,0.006
776.50,0.017
777.00,0.016
777.50,0.013
778.00,0.020
778.50,0.019
779.00,0.020
779.50,0.026
780.00,0.021
780.50,0.015
781.00,0.016
781.50,0.011
782.00,0.019
782.50,0.023
783.00,0.018
783.50,0.014
784.00,0.001
784.50,0.011
785.00,0.019
785.50,0.015
786.00,0.023
786.50,0.014
787.00,0.012
787.50,0.020
788.00,0.015
788.50,0.018
789.00,0.008
789.50,0.014
790.00,0.025
790.50,0.020
791.00,0.028
791.50,0.018
792.00,0.026
792.50,0.012
793.00,0.009
793.50,0.004
794.00,0.012
794.50,0.015
795.00,0.018
795.50,0.020
796.00,0.009
796.50,0.003
797.00,0.009
797.50,0.005
798.00,0.005
798.50,0.018
799.00,0.006
799.50,0.008
800.00,0.005
