"Storage 213854 - RawData - C:\Documents and Settings\uvvis\Desktop\n\File_260414_213854.spc"
"Wavelength nm.","Abs."
190.00,0.898
190.50,0.313
191.00,5.000
191.50,5.000
192.00,-0.078
192.50,-0.201
193.00,0.418
193.50,-0.321
194.00,0.510
194.50,5.000
195.00,-0.200
195.50,2.318
196.00,5.000
196.50,5.000
197.00,5.000
197.50,-1.314
198.00,5.000
198.50,5.000
199.00,0.486
199.50,0.059
200.00,0.353
200.50,0.245
201.00,0.238
201.50,0.061
202.00,0.157
202.50,0.008
203.00,0.248
203.50,0.412
204.00,0.255
204.50,0.226
205.00,0.252
205.50,0.176
206.00,0.276
206.50,0.190
207.00,0.159
207.50,0.174
208.00,0.161
208.50,0.170
209.00,0.128
209.50,0.207
210.00,0.191
210.50,0.167
211.00,0.248
211.50,0.163
212.00,0.221
212.50,0.201
213.00,0.189
213.50,0.195
214.00,0.193
214.50,0.180
215.00,0.201
215.50,0.177
216.00,0.238
216.50,0.217
217.00,0.195
217.50,0.200
218.00,0.215
218.50,0.224
219.00,0.191
219.50,0.222
220.00,0.235
220.50,0.223
221.00,0.223
221.50,0.245
222.00,0.255
222.50,0.242
223.00,0.271
223.50,0.261
224.00,0.249
224.50,0.243
225.00,0.261
225.50,0.267
226.00,0.273
226.50,0.278
227.00,0.260
227.50,0.283
228.00,0.274
228.50,0.272
229.00,0.299
229.50,0.295
230.00,0.278
230.50,0.280
231.00,0.298
231.50,0.315
232.00,0.312
232.50,0.292
233.00,0.327
233.50,0.318
234.00,0.320
234.50,0.321
235.00,0.300
235.50,0.300
236.00,0.316
236.50,0.327
237.00,0.342
237.50,0.345
238.00,0.327
238.50,0.327
239.00,0.321
239.50,0.318
240.00,0.327
240.50,0.316
241.00,0.308
241.50,0.316
242.00,0.308
242.50,0.322
243.00,0.325
243.50,0.298
244.00,0.293
244.50,0.296
245.00,0.297
245.50,0.280
246.00,0.290
246.50,0.277
247.00,0.276
247.50,0.259
248.00,0.254
248.50,0.255
249.00,0.248
249.50,0.272
250.00,0.264
250.50,0.246
251.00,0.251
251.50,0.242
252.00,0.233
252.50,0.233
253.00,0.211
253.50,0.203
254.00,0.209
254.50,0.191
255.00,0.196
255.50,0.189
256.00,0.195
256.50,0.188
257.00,0.199
257.50,0.188
258.00,0.180
258.50,0.177
259.00,0.177
259.50,0.162
260.00,0.163
260.50,0.167
261.00,0.152
261.50,0.152
262.00,0.150
262.50,0.139
263.00,0.138
263.50,0.151
264.00,0.140
264.50,0.133
265.00,0.136
265.50,0.140
266.00,0.135
266.50,0.133
267.00,0.136
267.50,0.123
268.00,0.123
268.50,0.109
269.00,0.128
269.50,0.100
270.00,0.111
270.50,0.104
271.00,0.105
271.50,0.114
272.00,0.119
272.50,0.094
273.00,0.105
273.50,0.104
274.00,0.091
274.50,0.099
275.00,0.092
275.50,0.092
276.00,0.088
276.50,0.086
277.00,0.093
277.50,0.086
278.00,0.089
278.50,0.085
279.00,0.076
279.50,0.078
280.00,0.080
280.50,0.080
281.00,0.082
281.50,0.068
282.00,0.081
282.50,0.077
283.00,0.070
283.50,0.080
284.00,0.078
284.50,0.070
285.00,0.068
285.50,0.066
286.00,0.061
286.50,0.053
287.00,0.060
287.50,0.064
288.00,0.061
288.50,0.070
289.00,0.064
289.50,0.065
290.00,0.049
290.50,0.066
291.00,0.066
291.50,0.054
292.00,0.056
292.50,0.068
293.00,0.061
293.50,0.059
294.00,0.064
294.50,0.074
295.00,0.066
295.50,0.062
296.00,0.043
296.50,0.047
297.00,0.055
297.50,0.060
298.00,0.064
298.50,0.076
299.00,0.072
299.50,0.064
300.00,0.068
300.50,0.063
301.00,0.060
301.50,0.072
302.00,0.071
302.50,0.074
303.00,0.071
303.50,0.066
304.00,0.062
304.50,0.067
305.00,0.068
305.50,0.064
306.00,0.069
306.50,0.066
307.00,0.080
307.50,0.069
308.00,0.067
308.50,0.081
309.00,0.063
309.50,0.058
310.00,0.046
310.50,0.054
311.00,0.058
311.50,0.062
312.00,0.076
312.50,0.095
313.00,0.075
313.50,0.081
314.00,0.084
314.50,0.060
315.00,0.075
315.50,0.065
316.00,0.068
316.50,0.061
317.00,0.062
317.50,0.048
318.00,0.057
318.50,0.074
319.00,0.074
319.50,0.051
320.00,0.052
320.50,0.069
321.00,0.067
321.50,0.062
322.00,0.054
322.50,0.067
323.00,0.054
323.50,0.073
324.00,0.078
324.50,0.079
325.00,0.096
325.50,0.074
326.00,0.071
326.50,0.074
327.00,0.070
327.50,0.068
328.00,0.095
328.50,0.087
329.00,0.076
329.50,0.077
330.00,0.089
330.50,0.078
331.00,0.085
331.50,0.084
332.00,0.085
332.50,0.071
333.00,0.090
333.50,0.078
334.00,0.086
334.50,0.079
335.00,0.091
335.50,0.098
336.00,0.111
336.50,0.080
337.00,0.084
337.50,0.082
338.00,0.086
338.50,0.084
339.00,0.097
339.50,0.108
340.00,0.116
340.50,0.104
341.00,0.101
341.50,0.084
342.00,0.111
342.50,0.118
343.00,0.104
343.50,0.094
344.00,0.094
344.50,0.101
345.00,0.109
345.50,0.104
346.00,0.105
346.50,0.099
347.00,0.097
347.50,0.112
348.00,0.107
348.50,0.108
349.00,0.111
349.50,0.120
350.00,0.117
350.50,0.107
351.00,0.106
351.50,0.112
352.00,0.117
352.50,0.116
353.00,0.123
353.50,0.120
354.00,0.117
354.50,0.131
355.00,0.136
355.50,0.126
356.00,0.119
356.50,0.135
357.00,0.135
357.50,0.136
358.00,0.143
358.50,0.139
359.00,0.134
359.50,0.139
360.00,0.143
360.50,0.140
361.00,0.133
361.50,0.131
362.00,0.140
362.50,0.146
363.00,0.147
363.50,0.145
364.00,0.148
364.50,0.154
365.00,0.144
365.50,0.153
366.00,0.151
366.50,0.161
367.00,0.154
367.50,0.158
368.00,0.157
368.50,0.153
369.00,0.158
369.50,0.158
370.00,0.153
370.50,0.165
371.00,0.167
371.50,0.164
372.00,0.172
372.50,0.175
373.00,0.172
373.50,0.175
374.00,0.184
374.50,0.172
375.00,0.177
375.50,0.186
376.00,0.181
376.50,0.182
377.00,0.188
377.50,0.175
378.00,0.181
378.50,0.185
379.00,0.196
379.50,0.191
380.00,0.196
380.50,0.202
381.00,0.200
381.50,0.194
382.00,0.206
382.50,0.207
383.00,0.206
383.50,0.215
384.00,0.212
384.50,0.218
385.00,0.221
385.50,0.216
386.00,0.225
386.50,0.219
387.00,0.223
387.50,0.227
388.00,0.233
388.50,0.238
389.00,0.228
389.50,0.234
390.00,0.235
390.50,0.240
391.00,0.238
391.50,0.248
392.00,0.238
392.50,0.242
393.00,0.246
393.50,0.254
394.00,0.256
394.50,0.252
395.00,0.256
395.50,0.264
396.00,0.271
396.50,0.275
397.00,0.275
397.50,0.275
398.00,0.279
398.50,0.279
399.00,0.281
399.50,0.283
400.00,0.290
400.50,0.285
401.00,0.287
401.50,0.287
402.00,0.290
402.50,0.301
403.00,0.294
403.50,0.295
404.00,0.305
404.50,0.301
405.00,0.307
405.50,0.307
406.00,0.307
406.50,0.307
407.00,0.311
407.50,0.315
408.00,0.319
408.50,0.330
409.00,0.327
409.50,0.326
410.00,0.331
410.50,0.331
411.00,0.334
411.50,0.332
412.00,0.331
412.50,0.331
413.00,0.336
413.50,0.344
414.00,0.348
414.50,0.351
415.00,0.351
415.50,0.349
416.00,0.351
416.50,0.348
417.00,0.350
417.50,0.357
418.00,0.358
418.50,0.358
419.00,0.355
419.50,0.359
420.00,0.361
420.50,0.358
421.00,0.365
421.50,0.364
422.00,0.357
422.50,0.357
423.00,0.360
423.50,0.356
424.00,0.353
424.50,0.353
425.00,0.354
425.50,0.357
426.00,0.356
426.50,0.363
427.00,0.347
427.50,0.351
428.00,0.355
428.50,0.344
429.00,0.352
429.50,0.344
430.00,0.357
430.50,0.348
431.00,0.345
431.50,0.350
432.00,0.345
432.50,0.347
433.00,0.346
433.50,0.347
434.00,0.344
434.50,0.348
435.00,0.347
435.50,0.340
436.00,0.344
436.50,0.339
437.00,0.339
437.50,0.330
438.00,0.331
438.50,0.335
439.00,0.331
439.50,0.331
440.00,0.327
440.50,0.324
441.00,0.320
441.50,0.311
442.00,0.314
442.50,0.314
443.00,0.314
443.50,0.311
444.00,0.309
444.50,0.304
445.00,0.302
445.50,0.303
446.00,0.300
446.50,0.294
447.00,0.290
447.50,0.288
448.00,0.280
448.50,0.281
449.00,0.278
449.50,0.273
450.00,0.268
450.50,0.261
451.00,0.263
451.50,0.262
452.00,0.257
452.50,0.255
453.00,0.244
453.50,0.242
454.00,0.236
454.50,0.230
455.00,0.229
455.50,0.226
456.00,0.218
456.50,0.217
457.00,0.209
457.50,0.207
458.00,0.202
458.50,0.197
459.00,0.193
459.50,0.192
460.00,0.181
460.50,0.177
461.00,0.173
461.50,0.171
462.00,0.165
462.50,0.165
463.00,0.154
463.50,0.153
464.00,0.150
464.50,0.148
465.00,0.141
465.50,0.137
466.00,0.134
466.50,0.127
467.00,0.119
467.50,0.115
468.00,0.113
468.50,0.115
469.00,0.113
469.50,0.107
470.00,0.108
470.50,0.102
471.00,0.095
471.50,0.093
472.00,0.092
472.50,0.091
473.00,0.085
473.50,0.081
474.00,0.077
474.50,0.075
475.00,0.076
475.50,0.070
476.00,0.070
476.50,0.066
477.00,0.060
477.50,0.058
478.00,0.058
478.50,0.054
479.00,0.054
479.50,0.049
480.00,0.045
480.50,0.047
481.00,0.042
481.50,0.043
482.00,0.041
482.50,0.039
483.00,0.037
483.50,0.031
484.00,0.028
484.50,0.033
485.00,0.036
485.50,0.029
486.00,0.030
486.50,0.026
487.00,0.026
487.50,0.024
488.00,0.029
488.50,0.019
489.00,0.023
489.50,0.026
490.00,0.021
490.50,0.019
491.00,0.014
491.50,0.015
492.00,0.019
492.50,0.018
493.00,0.017
493.50,0.015
494.00,0.014
494.50,0.010
495.00,0.014
495.50,0.015
496.00,0.016
496.50,0.015
497.00,0.011
497.50,0.013
498.00,0.011
498.50,0.013
499.00,0.011
499.50,0.010
500.00,0.008
500.50,0.008
501.00,0.008
501.50,0.007
502.00,0.010
502.50,0.009
503.00,0.011
503.50,0.008
504.00,0.006
504.50,0.005
505.00,0.005
505.50,0.003
506.00,0.004
506.50,0.004
507.00,0.003
507.50,0.007
508.00,0.006
508.50,0.002
509.00,0.005
509.50,0.005
510.00,0.008
510.50,0.008
511.00,0.004
511.50,0.004
512.00,0.003
512.50,0.005
513.00,0.006
513.50,0.008
514.00,0.009
514.50,0.004
515.00,0.002
515.50,0.007
516.00,0.003
516.50,0.007
517.00,0.005
517.50,0.001
518.00,0.004
518.50,0.001
519.00,0.003
519.50,0.000
520.00,0.002
520.50,-0.002
521.00,-0.001
521.50,0.002
522.00,-0.001
522.50,0.001
523.00,0.002
523.50,-0.001
524.00,0.003
524.50,0.003
525.00,0.000
525.50,-0.000
526.00,0.001
526.50,0.001
527.00,0.005
527.50,0.002
528.00,0.000
528.50,0.000
529.00,-0.000
529.50,0.003
530.00,0.001
530.50,-0.001
531.00,0.001
531.50,0.003
532.00,0.002
532.50,0.006
533.00,0.001
533.50,0.002
534.00,-0.001
534.50,-0.002
535.00,0.004
535.50,0.005
536.00,0.004
536.50,0.002
537.00,0.002
537.50,0.002
538.00,0.002
538.50,0.001
539.00,0.002
539.50,0.005
540.00,0.001
540.50,0.001
541.00,-0.000
541.50,-0.001
542.00,-0.001
542.50,-0.000
543.00,-0.000
543.50,-0.002
544.00,0.002
544.50,0.002
545.00,-0.002
545.50,-0.003
546.00,-0.002
546.50,-0.002
547.00,0.003
547.50,0.003
548.00,0.000
548.50,-0.000
549.00,-0.001
549.50,0.000
550.00,0.004
550.50,-0.001
551.00,-0.002
551.50,0.003
552.00,0.001
552.50,0.001
553.00,0.001
553.50,-0.001
554.00,-0.001
554.50,0.002
555.00,-0.002
555.50,-0.002
556.00,-0.002
556.50,-0.002
557.00,-0.002
557.50,-0.002
558.00,0.001
558.50,-0.001
559.00,0.002
559.50,0.002
560.00,0.003
560.50,-0.000
561.00,0.004
561.50,0.002
562.00,0.001
562.50,0.002
563.00,0.001
563.50,-0.000
564.00,0.002
564.50,0.003
565.00,-0.001
565.50,0.001
566.00,-0.002
566.50,-0.003
567.00,-0.002
567.50,-0.000
568.00,0.001
568.50,-0.001
569.00,0.000
569.50,-0.001
570.00,0.001
570.50,-0.000
571.00,0.001
571.50,-0.001
572.00,-0.002
572.50,-0.001
573.00,-0.000
573.50,-0.002
574.00,0.003
574.50,0.002
575.00,-0.003
575.50,-0.000
576.00,-0.005
576.50,-0.004
577.00,-0.001
577.50,-0.007
578.00,-0.000
578.50,-0.002
579.00,-0.001
579.50,-0.001
580.00,-0.001
580.50,-0.000
581.00,-0.003
581.50,-0.003
582.00,-0.003
582.50,-0.005
583.00,-0.000
583.50,0.002
584.00,-0.000
584.50,0.000
585.00,-0.003
585.50,-0.002
586.00,-0.001
586.50,-0.002
587.00,0.001
587.50,-0.001
588.00,-0.000
588.50,-0.001
589.00,0.001
589.50,0.000
590.00,-0.003
590.50,0.002
591.00,-0.001
591.50,-0.003
592.00,0.000
592.50,-0.002
593.00,-0.010
593.50,-0.006
594.00,-0.000
594.50,0.001
595.00,0.000
595.50,0.000
596.00,0.003
596.50,0.003
597.00,0.002
597.50,-0.001
598.00,0.001
598.50,0.000
599.00,-0.000
599.50,-0.002
600.00,-0.006
600.50,-0.006
601.00,-0.001
601.50,-0.002
602.00,-0.005
602.50,-0.004
603.00,0.000
603.50,-0.003
604.00,-0.000
604.50,-0.003
605.00,-0.001
605.50,0.001
606.00,0.001
606.50,0.002
607.00,0.002
607.50,0.003
608.00,-0.001
608.50,0.001
609.00,0.000
609.50,0.000
610.00,-0.002
610.50,-0.005
611.00,-0.005
611.50,-0.005
612.00,-0.006
612.50,-0.002
613.00,-0.002
613.50,-0.000
614.00,-0.004
614.50,-0.002
615.00,0.001
615.50,-0.001
616.00,-0.003
616.50,0.003
617.00,0.001
617.50,-0.002
618.00,0.003
618.50,0.001
619.00,-0.001
619.50,0.003
620.00,-0.003
620.50,-0.001
621.00,0.001
621.50,0.002
622.00,-0.003
622.50,0.000
623.00,-0.000
623.50,-0.001
624.00,0.004
624.50,0.003
625.00,-0.002
625.50,-0.005
626.00,0.002
626.50,-0.002
627.00,-0.002
627.50,0.004
628.00,-0.001
628.50,0.003
629.00,-0.001
629.50,-0.002
630.00,0.001
630.50,0.001
631.00,0.002
631.50,0.003
632.00,0.005
632.50,0.001
633.00,-0.001
633.50,-0.004
634.00,0.000
634.50,-0.006
635.00,-0.006
635.50,-0.004
636.00,-0.001
636.50,-0.001
637.00,-0.002
637.50,-0.003
638.00,-0.002
638.50,0.001
639.00,-0.000
639.50,0.008
640.00,0.003
640.50,-0.005
641.00,-0.004
641.50,-0.002
642.00,0.001
642.50,0.006
643.00,0.001
643.50,0.002
644.00,-0.001
644.50,-0.002
645.00,0.002
645.50,0.001
646.00,0.001
646.50,-0.001
647.00,-0.000
647.50,-0.001
648.00,0.007
648.50,0.002
649.00,-0.004
649.50,-0.001
650.00,-0.005
650.50,0.001
651.00,-0.002
651.50,0.002
652.00,0.004
652.50,-0.002
653.00,-0.002
653.50,-0.003
654.00,-0.004
654.50,-0.001
655.00,0.002
655.50,0.006
656.00,-0.002
656.50,-0.001
657.00,0.006
657.50,0.006
658.00,0.005
658.50,0.001
659.00,0.004
659.50,-0.001
660.00,0.004
660.50,0.002
661.00,0.006
661.50,0.006
662.00,0.006
662.50,-0.002
663.00,-0.000
663.50,0.002
664.00,-0.000
664.50,-0.001
665.00,0.002
665.50,0.003
666.00,0.002
666.50,0.002
667.00,0.000
667.50,-0.002
668.00,-0.001
668.50,0.001
669.00,0.003
669.50,0.004
670.00,0.003
670.50,0.006
671.00,0.002
671.50,0.005
672.00,0.008
672.50,0.001
673.00,-0.000
673.50,0.000
674.00,-0.003
674.50,-0.003
675.00,0.003
675.50,-0.002
676.00,0.000
676.50,0.004
677.00,-0.001
677.50,-0.001
678.00,0.001
678.50,-0.001
679.00,-0.005
679.50,-0.005
680.00,-0.001
680.50,-0.002
681.00,-0.006
681.50,0.001
682.00,0.004
682.50,-0.001
683.00,-0.004
683.50,0.001
684.00,0.003
684.50,0.002
685.00,0.002
685.50,0.002
686.00,-0.000
686.50,0.004
687.00,0.001
687.50,-0.001
688.00,-0.003
688.50,0.002
689.00,-0.003
689.50,-0.004
690.00,-0.000
690.50,-0.005
691.00,0.001
691.50,0.001
692.00,-0.003
692.50,0.003
693.00,0.002
693.50,0.001
694.00,-0.000
694.50,-0.003
695.00,0.002
695.50,0.002
696.00,-0.002
696.50,0.002
697.00,-0.005
697.50,-0.004
698.00,-0.007
698.50,0.000
699.00,0.002
699.50,0.005
700.00,-0.003
700.50,-0.003
701.00,0.002
701.50,-0.001
702.00,0.001
702.50,0.004
703.00,0.006
703.50,0.012
704.00,0.006
704.50,0.001
705.00,-0.001
705.50,-0.003
706.00,-0.003
706.50,0.007
707.00,-0.002
707.50,-0.005
708.00,0.002
708.50,0.001
709.00,0.001
709.50,0.001
710.00,-0.001
710.50,-0.006
711.00,0.004
711.50,0.006
712.00,0.006
712.50,-0.000
713.00,-0.002
713.50,-0.001
714.00,0.005
714.50,-0.001
715.00,-0.004
715.50,-0.005
716.00,0.000
716.50,0.002
717.00,0.005
717.50,0.010
718.00,0.005
718.50,-0.005
719.00,0.001
719.50,0.003
720.00,-0.001
720.50,0.000
721.00,0.001
721.50,-0.000
722.00,0.002
722.50,-0.002
723.00,-0.002
723.50,0.001
724.00,0.000
724.50,0.000
725.00,0.008
725.50,0.001
726.00,0.000
726.50,0.002
727.00,0.004
727.50,0.004
728.00,0.010
728.50,0.005
729.00,-0.000
729.50,-0.001
730.00,0.002
730.50,-0.001
731.00,-0.003
731.50,0.002
732.00,0.001
732.50,0.002
733.00,-0.002
733.50,-0.001
734.00,0.006
734.50,-0.002
735.00,0.002
735.50,0.005
736.00,-0.004
736.50,-0.004
737.00,-0.003
737.50,0.002
738.00,-0.002
738.50,-0.001
739.00,-0.000
739.50,0.004
740.00,-0.002
740.50,-0.001
741.00,-0.005
741.50,0.005
742.00,0.002
742.50,0.005
743.00,-0.004
743.50,0.005
744.00,-0.004
744.50,-0.002
745.00,0.001
745.50,0.001
746.00,-0.007
746.50,-0.003
747.00,-0.006
747.50,-0.009
748.00,-0.003
748.50,0.001
749.00,0.007
749.50,-0.007
750.00,-0.001
750.50,-0.005
751.00,-0.004
751.50,-0.002
752.00,0.003
752.50,-0.005
753.00,-0.003
753.50,0.003
754.00,0.013
754.50,0.006
755.00,0.006
755.50,-0.001
756.00,-0.011
756.50,-0.006
757.00,0.000
757.50,0.001
758.00,0.001
758.50,-0.005
759.00,-0.004
759.50,-0.007
760.00,-0.002
760.50,0.001
761.00,-0.005
761.50,-0.000
762.00,0.007
762.50,-0.002
763.00,0.001
763.50,0.003
764.00,0.003
764.50,-0.001
765.00,0.002
765.50,0.007
766.00,0.003
766.50,0.004
767.00,0.002
767.50,0.005
768.00,0.009
768.50,-0.004
769.00,0.006
769.50,0.002
770.00,0.001
770.50,0.003
771.00,0.003
771.50,0.010
772.00,0.012
772.50,0.003
773.00,0.012
773.50,0.003
774.00,0.004
774.50,0.009
775.00,-0.001
775.50,-0.013
776.00,-0.009
776.50,0.002
777.00,0.001
777.50,0.007
778.00,0.004
778.50,-0.009
779.00,0.004
779.50,-0.005
780.00,0.004
780.50,0.003
781.00,-0.001
781.50,-0.004
782.00,0.005
782.50,0.007
783.00,0.001
783.50,-0.002
784.00,0.010
784.50,0.005
785.00,0.009
785.50,-0.002
786.00,-0.003
786.50,-0.001
787.00,0.007
787.50,-0.011
788.00,-0.010
788.50,-0.002
789.00,-0.004
789.50,-0.004
790.00,0.002
790.50,-0.003
791.00,0.001
791.50,-0.001
792.00,0.005
792.50,-0.007
793.00,-0.011
793.50,-0.016
794.00,-0.010
794.50,-0.000
795.00,0.000
795.50,0.009
796.00,0.005
796.50,0.010
797.00,0.007
797.50,0.001
798.00,0.005
798.50,0.012
799.00,-0.000
799.50,0.008
800.00,0.002
