"Storage 214215 - RawData - C:\Documents and Settings\uvvis\Desktop\n\File_260414_214215.spc"
"Wavelength nm.","Abs."
190.00,5.000
190.50,0.141
191.00,0.980
191.50,-0.348
192.00,5.000
192.50,0.506
193.00,5.000
193.50,5.000
194.00,0.582
194.50,-0.292
195.00,1.130
195.50,2.008
196.00,-0.046
196.50,0.100
197.00,0.455
197.50,5.000
198.00,1.665
198.50,1.179
199.00,0.891
199.50,0.820
200.00,1.067
200.50,0.630
201.00,1.038
201.50,0.841
202.00,5.000
202.50,1.134
203.00,5.000
203.50,1.602
204.00,1.789
204.50,1.754
205.00,5.000
205.50,1.702
206.00,1.827
206.50,5.000
207.00,5.000
207.50,2.017
208.00,2.670
208.50,2.053
209.00,2.552
209.50,5.000
210.00,5.000
210.50,5.000
211.00,3.097
211.50,5.000
212.00,5.000
212.50,5.000
213.00,3.516
213.50,2.812
214.00,2.874
214.50,5.000
215.00,5.000
215.50,5.000
216.00,2.816
216.50,4.092
217.00,2.686
217.50,5.000
218.00,3.539
218.50,3.347
219.00,5.000
219.50,5.000
220.00,5.000
220.50,3.184
221.00,5.000
221.50,3.019
222.00,5.000
222.50,3.452
223.00,2.941
223.50,2.790
224.00,2.912
224.50,5.000
225.00,5.000
225.50,5.000
226.00,3.889
226.50,3.048
227.00,5.000
227.50,5.000
228.00,5.000
228.50,5.000
229.00,3.590
229.50,4.312
230.00,5.000
230.50,5.000
231.00,5.000
231.50,3.647
232.00,5.000
232.50,4.786
233.00,3.713
233.50,3.363
234.00,3.539
234.50,5.000
235.00,5.000
235.50,5.000
236.00,5.000
236.50,3.889
237.00,4.786
237.50,5.000
238.00,3.414
238.50,5.000
239.00,5.000
239.50,5.000
240.00,5.000
240.50,3.713
241.00,5.000
241.50,3.647
242.00,3.946
242.50,4.312
243.00,5.000
243.50,5.000
244.00,5.000
244.50,4.312
245.00,5.000
245.50,5.000
246.00,4.786
246.50,4.312
247.00,3.363
247.50,4.786
248.00,5.000
248.50,4.092
249.00,5.000
249.50,5.000
250.00,5.000
250.50,5.000
251.00,4.786
251.50,2.835
252.00,3.946
252.50,3.751
253.00,4.786
253.50,4.092
254.00,5.000
254.50,4.092
255.00,3.751
255.50,4.786
256.00,3.838
256.50,4.092
257.00,3.946
257.50,5.000
258.00,5.000
258.50,3.751
259.00,5.000
259.50,5.000
260.00,3.433
260.50,5.000
261.00,3.332
261.50,5.000
262.00,5.000
262.50,5.000
263.00,3.838
263.50,5.000
264.00,3.452
264.50,5.000
265.00,4.092
265.50,3.751
266.00,3.564
266.50,3.397
267.00,5.000
267.50,5.000
268.00,4.092
268.50,5.000
269.00,5.000
269.50,3.516
270.00,3.751
270.50,5.000
271.00,5.000
271.50,4.092
272.00,5.000
272.50,5.000
273.00,5.000
273.50,5.000
274.00,4.786
274.50,4.312
275.00,5.000
275.50,5.000
276.00,4.312
276.50,5.000
277.00,5.000
277.50,5.000
278.00,5.000
278.50,5.000
279.00,5.000
279.50,4.312
280.00,5.000
280.50,5.000
281.00,4.786
281.50,4.092
282.00,3.617
282.50,5.000
283.00,3.617
283.50,3.679
284.00,5.000
284.50,3.363
285.00,5.000
285.50,5.000
286.00,5.000
286.50,3.793
287.00,4.013
287.50,3.397
288.00,5.000
288.50,5.000
289.00,3.713
289.50,5.000
290.00,4.188
290.50,4.188
291.00,5.000
291.50,5.000
292.00,4.188
292.50,5.000
293.00,4.786
293.50,5.000
294.00,5.000
294.50,5.000
295.00,3.946
295.50,3.889
296.00,5.000
296.50,4.188
297.00,3.793
297.50,3.265
298.00,3.380
298.50,4.786
299.00,3.751
299.50,5.000
300.00,3.617
300.50,5.000
301.00,5.000
301.50,3.153
302.00,5.000
302.50,5.000
303.00,3.516
303.50,5.000
304.00,5.000
304.50,3.380
305.00,5.000
305.50,5.000
306.00,5.000
306.50,3.564
307.00,3.564
307.50,3.494
308.00,5.000
308.50,5.000
309.00,5.000
309.50,5.000
310.00,5.000
310.50,5.000
311.00,3.195
311.50,3.332
312.00,4.786
312.50,3.452
313.00,5.000
313.50,3.838
314.00,3.217
314.50,5.000
315.00,3.433
315.50,5.000
316.00,5.000
316.50,4.487
317.00,4.013
317.50,3.347
318.00,3.206
318.50,3.889
319.00,5.000
319.50,3.363
320.00,4.188
320.50,3.713
321.00,3.590
321.50,3.516
322.00,3.163
322.50,2.991
323.00,3.265
323.50,5.000
324.00,3.080
324.50,2.702
325.00,5.000
325.50,3.277
326.00,3.277
326.50,3.304
327.00,3.056
327.50,2.966
328.00,3.048
328.50,5.000
329.00,3.041
329.50,3.173
330.00,5.000
330.50,4.487
331.00,3.838
331.50,5.000
332.00,3.143
332.50,2.723
333.00,2.798
333.50,3.089
334.00,5.000
334.50,3.473
335.00,3.539
335.50,4.013
336.00,5.000
336.50,5.000
337.00,3.363
337.50,3.228
338.00,3.217
338.50,2.906
339.00,3.290
339.50,5.000
340.00,3.026
340.50,3.048
341.00,2.906
341.50,2.906
342.00,3.072
342.50,5.000
343.00,3.363
343.50,3.397
344.00,4.188
344.50,2.696
345.00,3.332
345.50,2.972
346.00,5.000
346.50,4.188
347.00,5.000
347.50,3.397
348.00,3.433
348.50,3.153
349.00,5.000
349.50,5.000
350.00,3.473
350.50,3.048
351.00,3.433
351.50,3.217
352.00,3.318
352.50,5.000
353.00,4.013
353.50,3.397
354.00,3.516
354.50,3.173
355.00,3.153
355.50,3.026
356.00,3.143
356.50,5.000
357.00,3.089
357.50,2.803
358.00,3.793
358.50,5.000
359.00,3.277
359.50,3.048
360.00,3.473
360.50,3.134
361.00,2.821
361.50,2.825
362.00,3.452
362.50,3.713
363.00,3.793
363.50,3.206
364.00,3.033
364.50,3.115
365.00,3.080
365.50,5.000
366.00,3.048
366.50,3.433
367.00,5.000
367.50,2.901
368.00,3.080
368.50,3.473
369.00,3.153
369.50,3.240
370.00,3.048
370.50,2.929
371.00,3.072
371.50,3.064
372.00,3.005
372.50,2.978
373.00,2.978
373.50,3.048
374.00,2.885
374.50,3.019
375.00,2.879
375.50,2.906
376.00,2.679
376.50,2.633
377.00,2.663
377.50,2.696
378.00,2.769
378.50,2.679
379.00,2.538
379.50,2.663
380.00,2.605
380.50,2.521
381.00,2.433
381.50,2.380
382.00,2.462
382.50,2.510
383.00,2.452
383.50,2.437
384.00,2.430
384.50,2.375
385.00,2.395
385.50,2.353
386.00,2.283
386.50,2.234
387.00,2.239
387.50,2.206
388.00,2.211
388.50,2.228
389.00,2.211
389.50,2.211
390.00,2.175
390.50,2.158
391.00,2.092
391.50,2.106
392.00,2.080
392.50,2.116
393.00,2.116
393.50,2.103
394.00,2.091
394.50,2.082
395.00,2.052
395.50,2.033
396.00,2.016
396.50,1.997
397.00,2.035
397.50,2.021
398.00,1.970
398.50,1.958
399.00,1.940
399.50,1.940
400.00,1.947
400.50,1.884
401.00,1.914
401.50,1.873
402.00,1.877
402.50,1.842
403.00,1.878
403.50,1.848
404.00,1.835
404.50,1.808
405.00,1.807
405.50,1.820
406.00,1.808
406.50,1.765
407.00,1.764
407.50,1.756
408.00,1.799
408.50,1.800
409.00,1.781
409.50,1.773
410.00,1.750
410.50,1.741
411.00,1.747
411.50,1.762
412.00,1.731
412.50,1.682
413.00,1.679
413.50,1.662
414.00,1.650
414.50,1.652
415.00,1.623
415.50,1.586
416.00,1.563
416.50,1.569
417.00,1.533
417.50,1.528
418.00,1.485
418.50,1.450
419.00,1.408
419.50,1.406
420.00,1.378
420.50,1.341
421.00,1.314
421.50,1.273
422.00,1.246
422.50,1.228
423.00,1.183
423.50,1.150
424.00,1.127
424.50,1.094
425.00,1.067
425.50,1.051
426.00,1.018
426.50,1.009
427.00,0.983
427.50,0.955
428.00,0.942
428.50,0.920
429.00,0.907
429.50,0.896
430.00,0.886
430.50,0.875
431.00,0.863
431.50,0.855
432.00,0.843
432.50,0.842
433.00,0.836
433.50,0.831
434.00,0.826
434.50,0.824
435.00,0.809
435.50,0.805
436.00,0.806
436.50,0.808
437.00,0.791
437.50,0.790
438.00,0.781
438.50,0.766
439.00,0.761
439.50,0.757
440.00,0.752
440.50,0.739
441.00,0.725
441.50,0.712
442.00,0.702
442.50,0.692
443.00,0.684
443.50,0.677
444.00,0.668
444.50,0.655
445.00,0.647
445.50,0.636
446.00,0.635
446.50,0.623
447.00,0.607
447.50,0.599
448.00,0.599
448.50,0.576
449.00,0.571
449.50,0.557
450.00,0.553
450.50,0.548
451.00,0.533
451.50,0.529
452.00,0.521
452.50,0.509
453.00,0.500
453.50,0.497
454.00,0.482
454.50,0.478
455.00,0.467
455.50,0.463
456.00,0.456
456.50,0.451
457.00,0.442
457.50,0.433
458.00,0.427
458.50,0.424
459.00,0.413
459.50,0.409
460.00,0.412
460.50,0.402
461.00,0.402
461.50,0.395
462.00,0.390
462.50,0.390
463.00,0.388
463.50,0.385
464.00,0.386
464.50,0.386
465.00,0.387
465.50,0.380
466.00,0.384
466.50,0.381
467.00,0.381
467.50,0.377
468.00,0.380
468.50,0.379
469.00,0.376
469.50,0.380
470.00,0.381
470.50,0.382
471.00,0.382
471.50,0.381
472.00,0.375
472.50,0.377
473.00,0.375
473.50,0.377
474.00,0.370
474.50,0.377
475.00,0.370
475.50,0.366
476.00,0.364
476.50,0.360
477.00,0.356
477.50,0.350
478.00,0.347
478.50,0.349
479.00,0.340
479.50,0.340
480.00,0.331
480.50,0.326
481.00,0.323
481.50,0.321
482.00,0.313
482.50,0.309
483.00,0.303
483.50,0.299
484.00,0.292
484.50,0.296
485.00,0.288
485.50,0.284
486.00,0.267
486.50,0.263
487.00,0.263
487.50,0.264
488.00,0.259
488.50,0.255
489.00,0.255
489.50,0.247
490.00,0.246
490.50,0.245
491.00,0.235
491.50,0.240
492.00,0.239
492.50,0.236
493.00,0.233
493.50,0.228
494.00,0.228
494.50,0.229
495.00,0.230
495.50,0.231
496.00,0.229
496.50,0.230
497.00,0.227
497.50,0.225
498.00,0.224
498.50,0.223
499.00,0.225
499.50,0.223
500.00,0.221
500.50,0.221
501.00,0.220
501.50,0.220
502.00,0.217
502.50,0.218
503.00,0.218
503.50,0.214
504.00,0.215
504.50,0.210
505.00,0.208
505.50,0.210
506.00,0.206
506.50,0.208
507.00,0.211
507.50,0.206
508.00,0.202
508.50,0.200
509.00,0.196
509.50,0.194
510.00,0.195
510.50,0.188
511.00,0.186
511.50,0.181
512.00,0.178
512.50,0.175
513.00,0.171
513.50,0.170
514.00,0.163
514.50,0.160
515.00,0.155
515.50,0.150
516.00,0.149
516.50,0.148
517.00,0.147
517.50,0.145
518.00,0.141
518.50,0.135
519.00,0.139
519.50,0.133
520.00,0.133
520.50,0.132
521.00,0.135
521.50,0.136
522.00,0.133
522.50,0.126
523.00,0.130
523.50,0.132
524.00,0.131
524.50,0.130
525.00,0.129
525.50,0.131
526.00,0.132
526.50,0.136
527.00,0.138
527.50,0.141
528.00,0.142
528.50,0.141
529.00,0.147
529.50,0.146
530.00,0.148
530.50,0.157
531.00,0.157
531.50,0.160
532.00,0.165
532.50,0.162
533.00,0.164
533.50,0.168
534.00,0.165
534.50,0.167
535.00,0.169
535.50,0.167
536.00,0.173
536.50,0.164
537.00,0.167
537.50,0.165
538.00,0.166
538.50,0.162
539.00,0.162
539.50,0.154
540.00,0.155
540.50,0.154
541.00,0.147
541.50,0.146
542.00,0.142
542.50,0.139
543.00,0.135
543.50,0.131
544.00,0.129
544.50,0.122
545.00,0.122
545.50,0.115
546.00,0.112
546.50,0.114
547.00,0.113
547.50,0.112
548.00,0.105
548.50,0.101
549.00,0.107
549.50,0.105
550.00,0.104
550.50,0.096
551.00,0.102
551.50,0.101
552.00,0.098
552.50,0.094
553.00,0.096
553.50,0.096
554.00,0.096
554.50,0.092
555.00,0.091
555.50,0.091
556.00,0.091
556.50,0.095
557.00,0.092
557.50,0.093
558.00,0.091
558.50,0.090
559.00,0.088
559.50,0.092
560.00,0.093
560.50,0.090
561.00,0.092
561.50,0.091
562.00,0.088
562.50,0.088
563.00,0.083
563.50,0.083
564.00,0.086
564.50,0.083
565.00,0.083
565.50,0.076
566.00,0.078
566.50,0.076
567.00,0.076
567.50,0.075
568.00,0.072
568.50,0.072
569.00,0.073
569.50,0.077
570.00,0.071
570.50,0.073
571.00,0.068
571.50,0.067
572.00,0.063
572.50,0.062
573.00,0.064
573.50,0.064
574.00,0.062
574.50,0.060
575.00,0.062
575.50,0.060
576.00,0.059
576.50,0.058
577.00,0.057
577.50,0.053
578.00,0.054
578.50,0.057
579.00,0.058
579.50,0.055
580.00,0.053
580.50,0.057
581.00,0.053
581.50,0.055
582.00,0.056
582.50,0.055
583.00,0.057
583.50,0.057
584.00,0.057
584.50,0.060
585.00,0.057
585.50,0.056
586.00,0.056
586.50,0.060
587.00,0.062
587.50,0.063
588.00,0.066
588.50,0.067
589.00,0.066
589.50,0.066
590.00,0.072
590.50,0.074
591.00,0.071
591.50,0.071
592.00,0.072
592.50,0.075
593.00,0.080
593.50,0.077
594.00,0.079
594.50,0.086
595.00,0.088
595.50,0.087
596.00,0.091
596.50,0.099
597.00,0.096
597.50,0.101
598.00,0.102
598.50,0.107
599.00,0.108
599.50,0.112
600.00,0.113
600.50,0.119
601.00,0.121
601.50,0.116
602.00,0.120
602.50,0.127
603.00,0.129
603.50,0.129
604.00,0.131
604.50,0.131
605.00,0.136
605.50,0.131
606.00,0.129
606.50,0.133
607.00,0.135
607.50,0.137
608.00,0.138
608.50,0.130
609.00,0.133
609.50,0.133
610.00,0.128
610.50,0.129
611.00,0.124
611.50,0.125
612.00,0.122
612.50,0.124
613.00,0.121
613.50,0.119
614.00,0.117
614.50,0.120
615.00,0.121
615.50,0.120
616.00,0.112
616.50,0.107
617.00,0.108
617.50,0.109
618.00,0.106
618.50,0.102
619.00,0.099
619.50,0.098
620.00,0.097
620.50,0.095
621.00,0.094
621.50,0.095
622.00,0.089
622.50,0.084
623.00,0.088
623.50,0.092
624.00,0.085
624.50,0.086
625.00,0.082
625.50,0.080
626.00,0.087
626.50,0.084
627.00,0.089
627.50,0.084
628.00,0.084
628.50,0.082
629.00,0.083
629.50,0.087
630.00,0.087
630.50,0.084
631.00,0.087
631.50,0.086
632.00,0.085
632.50,0.090
633.00,0.085
633.50,0.087
634.00,0.088
634.50,0.087
635.00,0.087
635.50,0.091
636.00,0.090
636.50,0.095
637.00,0.094
637.50,0.104
638.00,0.099
638.50,0.105
639.00,0.110
639.50,0.109
640.00,0.114
640.50,0.113
641.00,0.117
641.50,0.119
642.00,0.129
642.50,0.129
643.00,0.133
643.50,0.138
644.00,0.145
644.50,0.152
645.00,0.153
645.50,0.164
646.00,0.166
646.50,0.168
647.00,0.184
647.50,0.192
648.00,0.204
648.50,0.208
649.00,0.215
649.50,0.225
650.00,0.235
650.50,0.246
651.00,0.259
651.50,0.267
652.00,0.273
652.50,0.286
653.00,0.299
653.50,0.306
654.00,0.324
654.50,0.332
655.00,0.352
655.50,0.374
656.00,0.379
656.50,0.393
657.00,0.411
657.50,0.424
658.00,0.437
658.50,0.449
659.00,0.466
659.50,0.487
660.00,0.495
660.50,0.514
661.00,0.519
661.50,0.536
662.00,0.546
662.50,0.542
663.00,0.559
663.50,0.559
664.00,0.566
664.50,0.574
665.00,0.576
665.50,0.581
666.00,0.574
666.50,0.565
667.00,0.565
667.50,0.556
668.00,0.542
668.50,0.541
669.00,0.531
669.50,0.519
670.00,0.512
670.50,0.488
671.00,0.477
671.50,0.459
672.00,0.439
672.50,0.421
673.00,0.403
673.50,0.382
674.00,0.361
674.50,0.347
675.00,0.326
675.50,0.309
676.00,0.293
676.50,0.277
677.00,0.257
677.50,0.235
678.00,0.219
678.50,0.201
679.00,0.189
679.50,0.176
680.00,0.166
680.50,0.150
681.00,0.142
681.50,0.129
682.00,0.118
682.50,0.114
683.00,0.110
683.50,0.103
684.00,0.095
684.50,0.079
685.00,0.082
685.50,0.074
686.00,0.072
686.50,0.068
687.00,0.065
687.50,0.058
688.00,0.057
688.50,0.057
689.00,0.055
689.50,0.043
690.00,0.046
690.50,0.050
691.00,0.045
691.50,0.046
692.00,0.043
692.50,0.051
693.00,0.050
693.50,0.046
694.00,0.044
694.50,0.045
695.00,0.040
695.50,0.041
696.00,0.035
696.50,0.031
697.00,0.032
697.50,0.031
698.00,0.029
698.50,0.032
699.00,0.034
699.50,0.033
700.00,0.027
700.50,0.029
701.00,0.030
701.50,0.028
702.00,0.025
702.50,0.031
703.00,0.032
703.50,0.032
704.00,0.023
704.50,0.026
705.00,0.020
705.50,0.018
706.00,0.023
706.50,0.030
707.00,0.030
707.50,0.020
708.00,0.025
708.50,0.020
709.00,0.021
709.50,0.025
710.00,0.020
710.50,0.016
711.00,0.016
711.50,0.020
712.00,0.017
712.50,0.018
713.00,0.013
713.50,0.014
714.00,0.007
714.50,0.006
715.00,0.013
715.50,0.010
716.00,0.010
716.50,0.011
717.00,0.010
717.50,0.016
718.00,0.015
718.50,0.012
719.00,0.012
719.50,0.009
720.00,0.016
720.50,0.015
721.00,0.011
721.50,0.014
722.00,0.012
722.50,0.011
723.00,0.012
723.50,0.003
724.00,0.014
724.50,0.008
725.00,0.010
725.50,0.012
726.00,0.003
726.50,0.008
727.00,0.009
727.50,0.013
728.00,0.010
728.50,0.013
729.00,0.007
729.50,0.006
730.00,0.007
730.50,0.004
731.00,0.012
731.50,0.007
732.00,0.003
732.50,0.004
733.00,0.002
733.50,0.001
734.00,0.006
734.50,0.008
735.00,0.005
735.50,0.001
736.00,0.013
736.50,0.010
737.00,0.010
737.50,0.002
738.00,0.002
738.50,0.005
739.00,0.003
739.50,0.009
740.00,-0.000
740.50,-0.004
741.00,0.005
741.50,0.007
742.00,0.003
742.50,0.001
743.00,0.002
743.50,-0.004
744.00,0.003
744.50,0.006
745.00,-0.001
745.50,-0.002
746.00,0.001
746.50,0.006
747.00,0.003
747.50,-0.002
748.00,0.004
748.50,0.006
749.00,0.005
749.50,0.007
750.00,-0.001
750.50,-0.003
751.00,-0.003
751.50,0.001
752.00,-0.002
752.50,0.002
753.00,0.004
753.50,0.009
754.00,0.009
754.50,0.017
755.00,-0.001
755.50,0.005
756.00,0.010
756.50,0.004
757.00,0.003
757.50,0.003
758.00,0.007
758.50,0.001
759.00,0.005
759.50,0.006
760.00,0.003
760.50,-0.006
761.00,-0.003
761.50,-0.000
762.00,0.000
762.50,-0.002
763.00,0.007
763.50,0.004
764.00,0.006
764.50,0.004
765.00,-0.010
765.50,0.004
766.00,0.003
766.50,-0.002
767.00,0.008
767.50,0.004
768.00,0.001
768.50,0.003
769.00,-0.005
769.50,-0.003
770.00,0.016
770.50,-0.000
771.00,0.008
771.50,0.003
772.00,-0.002
772.50,0.004
773.00,0.003
773.50,0.004
774.00,0.004
774.50,0.010
775.00,0.005
775.50,-0.002
776.00,0.000
776.50,0.000
777.00,0.003
777.50,0.002
778.00,-0.001
778.50,0.006
779.00,0.009
779.50,0.004
780.00,0.004
780.50,0.002
781.00,-0.001
781.50,0.005
782.00,0.002
782.50,0.002
783.00,-0.001
783.50,-0.001
784.00,-0.002
784.50,0.003
785.00,0.007
785.50,0.003
786.00,-0.009
786.50,0.004
787.00,-0.006
787.50,-0.011
788.00,-0.000
788.50,-0.004
789.00,0.006
789.50,0.001
790.00,0.006
790.50,0.007
791.00,-0.004
791.50,-0.002
792.00,0.005
792.50,-0.012
793.00,-0.002
793.50,-0.014
794.00,-0.014
794.50,-0.009
795.00,-0.000
795.50,0.009
796.00,0.003
796.50,0.003
797.00,0.004
797.50,0.005
798.00,0.009
798.50,0.005
799.00,-0.006
799.50,-0.012
800.00,0.001
