"yellow-drop-1 - RawData - C:\Documents and Settings\uvvis\Desktop\w\File_260418_223357.spc"
"Wavelength nm.","Abs."
200.00,0.863
200.50,0.800
201.00,0.920
201.50,0.864
202.00,0.787
202.50,0.798
203.00,0.805
203.50,0.736
204.00,0.663
204.50,0.774
205.00,0.667
205.50,0.654
206.00,0.660
206.50,0.665
207.00,0.603
207.50,0.571
208.00,0.574
208.50,0.550
209.00,0.557
209.50,0.540
210.00,0.461
210.50,0.453
211.00,0.448
211.50,0.388
212.00,0.399
212.50,0.380
213.00,0.335
213.50,0.321
214.00,0.319
214.50,0.314
215.00,0.322
215.50,0.295
216.00,0.287
216.50,0.282
217.00,0.284
217.50,0.293
218.00,0.271
218.50,0.298
219.00,0.303
219.50,0.295
220.00,0.290
220.50,0.285
221.00,0.326
221.50,0.342
222.00,0.341
222.50,0.361
223.00,0.367
223.50,0.374
224.00,0.420
224.50,0.385
225.00,0.397
225.50,0.401
226.00,0.416
226.50,0.433
227.00,0.444
227.50,0.439
228.00,0.447
228.50,0.442
229.00,0.451
229.50,0.461
230.00,0.467
230.50,0.484
231.00,0.451
231.50,0.476
232.00,0.473
232.50,0.480
233.00,0.469
233.50,0.461
234.00,0.470
234.50,0.485
235.00,0.473
235.50,0.476
236.00,0.466
236.50,0.476
237.00,0.459
237.50,0.465
238.00,0.440
238.50,0.428
239.00,0.413
239.50,0.402
240.00,0.372
240.50,0.388
241.00,0.365
241.50,0.361
242.00,0.367
242.50,0.355
243.00,0.345
243.50,0.342
244.00,0.359
244.50,0.342
245.00,0.345
245.50,0.348
246.00,0.346
246.50,0.334
247.00,0.351
247.50,0.347
248.00,0.339
248.50,0.346
249.00,0.338
249.50,0.342
250.00,0.326
250.50,0.337
251.00,0.342
251.50,0.341
252.00,0.353
252.50,0.358
253.00,0.361
253.50,0.352
254.00,0.349
254.50,0.357
255.00,0.356
255.50,0.340
256.00,0.327
256.50,0.309
257.00,0.298
257.50,0.292
258.00,0.280
258.50,0.257
259.00,0.229
259.50,0.221
260.00,0.202
260.50,0.201
261.00,0.165
261.50,0.161
262.00,0.145
262.50,0.146
263.00,0.126
263.50,0.112
264.00,0.120
264.50,0.117
265.00,0.116
265.50,0.121
266.00,0.118
266.50,0.110
267.00,0.117
267.50,0.114
268.00,0.109
268.50,0.098
269.00,0.099
269.50,0.105
270.00,0.117
270.50,0.113
271.00,0.103
271.50,0.121
272.00,0.104
272.50,0.118
273.00,0.113
273.50,0.134
274.00,0.124
274.50,0.132
275.00,0.138
275.50,0.145
276.00,0.142
276.50,0.142
277.00,0.140
277.50,0.142
278.00,0.148
278.50,0.149
279.00,0.147
279.50,0.139
280.00,0.157
280.50,0.149
281.00,0.158
281.50,0.158
282.00,0.169
282.50,0.169
283.00,0.167
283.50,0.171
284.00,0.176
284.50,0.180
285.00,0.191
285.50,0.197
286.00,0.203
286.50,0.213
287.00,0.214
287.50,0.214
288.00,0.218
288.50,0.214
289.00,0.217
289.50,0.234
290.00,0.234
290.50,0.245
291.00,0.248
291.50,0.267
292.00,0.256
292.50,0.262
293.00,0.259
293.50,0.263
294.00,0.278
294.50,0.277
295.00,0.267
295.50,0.275
296.00,0.274
296.50,0.261
297.00,0.265
297.50,0.277
298.00,0.269
298.50,0.273
299.00,0.268
299.50,0.259
300.00,0.265
300.50,0.250
301.00,0.246
301.50,0.249
302.00,0.236
302.50,0.229
303.00,0.235
303.50,0.216
304.00,0.206
304.50,0.195
305.00,0.188
305.50,0.194
306.00,0.194
306.50,0.195
307.00,0.196
307.50,0.197
308.00,0.188
308.50,0.166
309.00,0.176
309.50,0.161
310.00,0.163
310.50,0.164
311.00,0.152
311.50,0.122
312.00,0.120
312.50,0.114
313.00,0.139
313.50,0.131
314.00,0.132
314.50,0.120
315.00,0.131
315.50,0.117
316.00,0.095
316.50,0.092
317.00,0.086
317.50,0.097
318.00,0.091
318.50,0.099
319.00,0.111
319.50,0.084
320.00,0.085
320.50,0.087
321.00,0.093
321.50,0.086
322.00,0.071
322.50,0.072
323.00,0.079
323.50,0.087
324.00,0.091
324.50,0.095
325.00,0.089
325.50,0.068
326.00,0.081
326.50,0.078
327.00,0.063
327.50,0.074
328.00,0.084
328.50,0.073
329.00,0.067
329.50,0.077
330.00,0.068
330.50,0.070
331.00,0.081
331.50,0.063
332.00,0.065
332.50,0.060
333.00,0.056
333.50,0.051
334.00,0.047
334.50,0.032
335.00,0.041
335.50,0.045
336.00,0.035
336.50,0.031
337.00,0.044
337.50,0.040
338.00,0.022
338.50,0.018
339.00,0.038
339.50,0.027
340.00,0.037
340.50,0.047
341.00,0.033
341.50,0.024
342.00,0.039
342.50,0.043
343.00,0.039
343.50,0.036
344.00,0.031
344.50,0.028
345.00,0.032
345.50,0.027
346.00,0.046
346.50,0.030
347.00,0.039
347.50,0.033
348.00,0.029
348.50,0.029
349.00,0.026
349.50,0.024
350.00,0.031
350.50,0.028
351.00,0.029
351.50,0.030
352.00,0.042
352.50,0.040
353.00,0.032
353.50,0.032
354.00,0.038
354.50,0.053
355.00,0.051
355.50,0.040
356.00,0.041
356.50,0.038
357.00,0.022
357.50,0.037
358.00,0.044
358.50,0.030
359.00,0.030
359.50,0.040
360.00,0.041
360.50,0.051
361.00,0.046
361.50,0.055
362.00,0.050
362.50,0.051
363.00,0.063
363.50,0.063
364.00,0.066
364.50,0.060
365.00,0.061
365.50,0.044
366.00,0.061
366.50,0.066
367.00,0.059
367.50,0.068
368.00,0.073
368.50,0.072
369.00,0.070
369.50,0.072
370.00,0.068
370.50,0.075
371.00,0.068
371.50,0.074
372.00,0.072
372.50,0.078
373.00,0.076
373.50,0.081
374.00,0.082
374.50,0.089
375.00,0.080
375.50,0.079
376.00,0.070
376.50,0.072
377.00,0.067
377.50,0.068
378.00,0.076
378.50,0.084
379.00,0.078
379.50,0.073
380.00,0.087
380.50,0.079
381.00,0.080
381.50,0.087
382.00,0.089
382.50,0.094
383.00,0.084
383.50,0.098
384.00,0.093
384.50,0.105
385.00,0.113
385.50,0.100
386.00,0.099
386.50,0.095
387.00,0.103
387.50,0.109
388.00,0.110
388.50,0.107
389.00,0.106
389.50,0.106
390.00,0.100
390.50,0.107
391.00,0.117
391.50,0.111
392.00,0.113
392.50,0.112
393.00,0.117
393.50,0.109
394.00,0.109
394.50,0.111
395.00,0.105
395.50,0.099
396.00,0.106
396.50,0.114
397.00,0.111
397.50,0.109
398.00,0.109
398.50,0.108
399.00,0.105
399.50,0.108
400.00,0.109
400.50,0.111
401.00,0.114
401.50,0.111
402.00,0.115
402.50,0.113
403.00,0.111
403.50,0.112
404.00,0.120
404.50,0.114
405.00,0.120
405.50,0.122
406.00,0.120
406.50,0.128
407.00,0.123
407.50,0.128
408.00,0.132
408.50,0.126
409.00,0.137
409.50,0.133
410.00,0.135
410.50,0.140
411.00,0.142
411.50,0.148
412.00,0.146
412.50,0.150
413.00,0.150
413.50,0.155
414.00,0.159
414.50,0.165
415.00,0.169
415.50,0.174
416.00,0.172
416.50,0.175
417.00,0.177
417.50,0.188
418.00,0.190
418.50,0.185
419.00,0.191
419.50,0.196
420.00,0.206
420.50,0.208
421.00,0.211
421.50,0.221
422.00,0.224
422.50,0.222
423.00,0.227
423.50,0.227
424.00,0.231
424.50,0.238
425.00,0.239
425.50,0.244
426.00,0.248
426.50,0.251
427.00,0.255
427.50,0.262
428.00,0.263
428.50,0.271
429.00,0.276
429.50,0.273
430.00,0.280
430.50,0.278
431.00,0.281
431.50,0.289
432.00,0.292
432.50,0.300
433.00,0.303
433.50,0.304
434.00,0.307
434.50,0.304
435.00,0.316
435.50,0.316
436.00,0.317
436.50,0.315
437.00,0.318
437.50,0.322
438.00,0.332
438.50,0.331
439.00,0.336
439.50,0.348
440.00,0.353
440.50,0.357
441.00,0.358
441.50,0.361
442.00,0.364
442.50,0.366
443.00,0.362
443.50,0.363
444.00,0.372
444.50,0.374
445.00,0.380
445.50,0.380
446.00,0.379
446.50,0.382
447.00,0.378
447.50,0.388
448.00,0.384
448.50,0.393
449.00,0.388
449.50,0.387
450.00,0.388
450.50,0.389
451.00,0.397
451.50,0.398
452.00,0.396
452.50,0.397
453.00,0.393
453.50,0.402
454.00,0.396
454.50,0.396
455.00,0.395
455.50,0.397
456.00,0.395
456.50,0.393
457.00,0.394
457.50,0.394
458.00,0.390
458.50,0.385
459.00,0.385
459.50,0.380
460.00,0.379
460.50,0.379
461.00,0.368
461.50,0.369
462.00,0.359
462.50,0.357
463.00,0.359
463.50,0.349
464.00,0.346
464.50,0.344
465.00,0.336
465.50,0.332
466.00,0.324
466.50,0.325
467.00,0.316
467.50,0.312
468.00,0.301
468.50,0.298
469.00,0.293
469.50,0.287
470.00,0.281
470.50,0.276
471.00,0.266
471.50,0.261
472.00,0.251
472.50,0.246
473.00,0.242
473.50,0.235
474.00,0.229
474.50,0.221
475.00,0.212
475.50,0.207
476.00,0.195
476.50,0.186
477.00,0.187
477.50,0.178
478.00,0.174
478.50,0.171
479.00,0.159
479.50,0.157
480.00,0.152
480.50,0.144
481.00,0.134
481.50,0.131
482.00,0.127
482.50,0.119
483.00,0.111
483.50,0.103
484.00,0.101
484.50,0.099
485.00,0.096
485.50,0.090
486.00,0.086
486.50,0.085
487.00,0.078
487.50,0.072
488.00,0.070
488.50,0.068
489.00,0.066
489.50,0.063
490.00,0.059
490.50,0.056
491.00,0.057
491.50,0.048
492.00,0.045
492.50,0.044
493.00,0.046
493.50,0.042
494.00,0.036
494.50,0.036
495.00,0.033
495.50,0.029
496.00,0.026
496.50,0.024
497.00,0.024
497.50,0.022
498.00,0.021
498.50,0.020
499.00,0.019
499.50,0.020
500.00,0.020
500.50,0.018
501.00,0.018
501.50,0.021
502.00,0.018
502.50,0.015
503.00,0.016
503.50,0.019
504.00,0.019
504.50,0.017
505.00,0.016
505.50,0.015
506.00,0.012
506.50,0.010
507.00,0.013
507.50,0.010
508.00,0.010
508.50,0.010
509.00,0.010
509.50,0.007
510.00,0.010
510.50,0.009
511.00,0.007
511.50,0.006
512.00,0.008
512.50,0.013
513.00,0.012
513.50,0.014
514.00,0.012
514.50,0.010
515.00,0.007
515.50,0.007
516.00,0.007
516.50,0.008
517.00,0.008
517.50,0.006
518.00,0.007
518.50,0.005
519.00,0.007
519.50,0.007
520.00,0.010
520.50,0.007
521.00,0.007
521.50,0.008
522.00,0.011
522.50,0.007
523.00,0.008
523.50,0.009
524.00,0.008
524.50,0.008
525.00,0.010
525.50,0.008
526.00,0.005
526.50,0.010
527.00,0.007
527.50,0.007
528.00,0.007
528.50,0.007
529.00,0.001
529.50,0.006
530.00,0.003
530.50,0.008
531.00,0.008
531.50,0.005
532.00,0.007
532.50,0.007
533.00,0.006
533.50,0.006
534.00,0.004
534.50,0.007
535.00,0.008
535.50,0.008
536.00,0.005
536.50,0.007
537.00,0.007
537.50,0.008
538.00,0.006
538.50,0.008
539.00,0.006
539.50,0.007
540.00,0.007
540.50,0.006
541.00,0.004
541.50,0.006
542.00,0.005
542.50,0.007
543.00,0.006
543.50,0.006
544.00,0.009
544.50,0.008
545.00,0.007
545.50,0.010
546.00,0.011
546.50,0.007
547.00,0.007
547.50,0.008
548.00,0.007
548.50,0.012
549.00,0.008
549.50,0.010
550.00,0.009
550.50,0.007
551.00,0.008
551.50,0.006
552.00,0.003
552.50,0.006
553.00,0.009
553.50,0.009
554.00,0.007
554.50,0.006
555.00,0.005
555.50,0.006
556.00,0.008
556.50,0.008
557.00,0.007
557.50,0.006
558.00,0.006
558.50,0.003
559.00,0.004
559.50,0.008
560.00,0.007
560.50,0.008
561.00,0.008
561.50,0.005
562.00,0.006
562.50,0.003
563.00,0.008
563.50,0.004
564.00,0.008
564.50,0.008
565.00,0.007
565.50,0.009
566.00,0.003
566.50,0.004
567.00,0.006
567.50,0.008
568.00,0.010
568.50,0.006
569.00,0.007
569.50,0.004
570.00,0.002
570.50,0.007
571.00,0.006
571.50,0.009
572.00,0.007
572.50,0.005
573.00,0.008
573.50,0.010
574.00,0.006
574.50,0.006
575.00,0.004
575.50,0.008
576.00,0.005
576.50,0.005
577.00,0.003
577.50,0.008
578.00,0.005
578.50,0.007
579.00,0.006
579.50,0.005
580.00,0.005
580.50,0.007
581.00,0.005
581.50,0.007
582.00,0.005
582.50,0.005
583.00,0.005
583.50,0.009
584.00,0.004
584.50,0.001
585.00,0.010
585.50,0.005
586.00,0.005
586.50,0.007
587.00,0.007
587.50,0.004
588.00,0.005
588.50,0.007
589.00,0.005
589.50,0.006
590.00,0.009
590.50,0.007
591.00,0.010
591.50,0.007
592.00,0.011
592.50,0.010
593.00,0.007
593.50,0.004
594.00,0.009
594.50,0.007
595.00,0.011
595.50,0.011
596.00,0.007
596.50,0.010
597.00,0.011
597.50,0.007
598.00,0.007
598.50,0.004
599.00,0.005
599.50,0.006
600.00,0.006
600.50,0.006
601.00,0.007
601.50,0.006
602.00,0.003
602.50,0.001
603.00,0.007
603.50,0.008
604.00,0.012
604.50,0.006
605.00,0.008
605.50,0.007
606.00,0.008
606.50,0.005
607.00,0.007
607.50,0.006
608.00,0.005
608.50,0.004
609.00,0.007
609.50,0.004
610.00,0.011
610.50,0.008
611.00,0.007
611.50,0.013
612.00,0.011
612.50,0.010
613.00,0.008
613.50,0.012
614.00,0.006
614.50,0.007
615.00,0.008
615.50,0.008
616.00,0.008
616.50,0.011
617.00,0.011
617.50,0.009
618.00,0.009
618.50,0.012
619.00,0.013
619.50,0.014
620.00,0.008
620.50,0.008
621.00,0.009
621.50,0.004
622.00,0.009
622.50,0.006
623.00,0.006
623.50,0.004
624.00,0.005
624.50,0.009
625.00,0.011
625.50,0.006
626.00,0.006
626.50,0.011
627.00,0.011
627.50,0.008
628.00,0.008
628.50,0.012
629.00,0.013
629.50,0.013
630.00,0.012
630.50,0.007
631.00,0.007
631.50,0.008
632.00,0.009
632.50,0.008
633.00,0.003
633.50,0.006
634.00,0.007
634.50,0.007
635.00,0.006
635.50,0.006
636.00,0.009
636.50,0.008
637.00,0.008
637.50,0.008
638.00,0.005
638.50,0.004
639.00,0.008
639.50,0.008
640.00,0.008
640.50,0.007
641.00,0.008
641.50,0.010
642.00,0.004
642.50,0.007
643.00,0.006
643.50,0.003
644.00,0.008
644.50,0.007
645.00,0.009
645.50,0.007
646.00,0.007
646.50,0.012
647.00,0.003
647.50,0.006
648.00,0.007
648.50,0.008
649.00,0.007
649.50,0.011
650.00,0.010
650.50,0.009
651.00,0.004
651.50,0.001
652.00,0.010
652.50,0.011
653.00,0.012
653.50,0.009
654.00,0.009
654.50,0.006
655.00,0.009
655.50,0.008
656.00,0.008
656.50,0.006
657.00,0.004
657.50,0.006
658.00,0.008
658.50,0.007
659.00,0.009
659.50,0.009
660.00,0.008
660.50,0.006
661.00,0.004
661.50,0.006
662.00,0.008
662.50,0.009
663.00,0.003
663.50,0.005
664.00,0.009
664.50,0.007
665.00,0.006
665.50,0.007
666.00,0.007
666.50,0.006
667.00,0.000
667.50,0.005
668.00,0.007
668.50,0.010
669.00,0.005
669.50,0.005
670.00,0.008
670.50,0.007
671.00,0.005
671.50,0.008
672.00,0.005
672.50,0.005
673.00,0.004
673.50,0.007
674.00,0.006
674.50,0.003
675.00,0.004
675.50,0.008
676.00,0.004
676.50,0.004
677.00,0.007
677.50,0.006
678.00,0.002
678.50,0.004
679.00,0.008
679.50,0.011
680.00,0.007
680.50,0.007
681.00,0.003
681.50,0.008
682.00,0.006
682.50,0.005
683.00,0.005
683.50,-0.002
684.00,0.002
684.50,0.005
685.00,0.002
685.50,0.003
686.00,0.003
686.50,0.000
687.00,0.008
687.50,0.013
688.00,0.011
688.50,0.013
689.00,0.013
689.50,0.014
690.00,0.012
690.50,0.011
691.00,-0.007
691.50,0.007
692.00,0.010
692.50,0.009
693.00,0.007
693.50,0.007
694.00,0.007
694.50,0.006
695.00,0.004
695.50,0.006
696.00,0.005
696.50,0.004
697.00,0.008
697.50,0.009
698.00,0.011
698.50,0.009
699.00,0.007
699.50,0.010
700.00,0.009
700.50,0.006
701.00,0.013
701.50,0.012
702.00,0.009
702.50,0.009
703.00,0.007
703.50,0.007
704.00,0.003
704.50,0.010
705.00,0.005
705.50,0.007
706.00,0.005
706.50,0.005
707.00,0.005
707.50,0.005
708.00,0.006
708.50,0.008
709.00,0.008
709.50,0.008
710.00,0.003
710.50,0.006
711.00,0.009
711.50,0.010
712.00,0.006
712.50,0.010
713.00,0.005
713.50,0.012
714.00,0.008
714.50,0.006
715.00,0.007
715.50,0.012
716.00,0.005
716.50,0.006
717.00,0.009
717.50,0.010
718.00,0.012
718.50,0.017
719.00,0.014
719.50,0.012
720.00,0.016
720.50,0.008
721.00,0.007
721.50,0.008
722.00,0.005
722.50,0.006
723.00,0.003
723.50,0.002
724.00,0.003
724.50,0.003
725.00,0.006
725.50,0.010
726.00,0.011
726.50,0.008
727.00,0.006
727.50,0.009
728.00,0.002
728.50,0.009
729.00,0.016
729.50,0.014
730.00,0.014
730.50,0.012
731.00,0.010
731.50,0.009
732.00,0.008
732.50,0.007
733.00,0.003
733.50,0.010
734.00,0.012
734.50,0.008
735.00,0.011
735.50,0.005
736.00,0.007
736.50,0.006
737.00,0.019
737.50,0.005
738.00,0.013
738.50,0.008
739.00,0.011
739.50,0.004
740.00,0.006
740.50,0.016
741.00,0.006
741.50,0.009
742.00,0.002
742.50,0.006
743.00,0.001
743.50,0.006
744.00,0.015
744.50,0.008
745.00,0.010
745.50,0.005
746.00,0.008
746.50,0.011
747.00,0.011
747.50,0.006
748.00,0.003
748.50,0.008
749.00,0.006
749.50,0.006
750.00,-0.003
750.50,0.004
751.00,0.007
751.50,0.011
752.00,0.013
752.50,0.004
753.00,0.008
753.50,0.008
754.00,0.009
754.50,0.005
755.00,0.006
755.50,0.008
756.00,0.007
756.50,0.005
757.00,0.009
757.50,0.007
758.00,0.015
758.50,0.015
759.00,0.008
759.50,0.004
760.00,0.003
760.50,0.011
761.00,0.004
761.50,0.007
762.00,0.007
762.50,0.016
763.00,0.014
763.50,0.010
764.00,0.005
764.50,0.006
765.00,0.003
765.50,0.006
766.00,0.004
766.50,0.006
767.00,0.010
767.50,0.013
768.00,0.006
768.50,0.006
769.00,0.007
769.50,0.010
770.00,0.013
770.50,0.007
771.00,0.010
771.50,0.007
772.00,0.005
772.50,0.003
773.00,0.010
773.50,0.010
774.00,0.005
774.50,0.002
775.00,0.001
775.50,0.003
776.00,0.007
776.50,0.014
777.00,0.005
777.50,0.004
778.00,0.009
778.50,0.002
779.00,0.000
779.50,0.006
780.00,0.006
780.50,0.014
781.00,0.012
781.50,0.005
782.00,0.011
782.50,-0.001
783.00,0.014
783.50,0.006
784.00,0.012
784.50,0.006
785.00,0.007
785.50,0.004
786.00,0.008
786.50,0.006
787.00,0.011
787.50,0.013
788.00,0.010
788.50,0.004
789.00,0.010
789.50,0.006
790.00,0.009
790.50,0.008
791.00,0.008
791.50,0.008
792.00,0.003
792.50,-0.003
793.00,-0.005
793.50,-0.005
794.00,0.006
794.50,0.006
795.00,0.002
795.50,0.001
796.00,-0.001
796.50,0.007
797.00,0.001
797.50,-0.002
798.00,0.001
798.50,0.012
799.00,0.006
799.50,0.004
800.00,0.004
