wavenumber,transmittance,absorbance
550.095200,82.627530,0.082875
550.577300,82.872890,0.081588
551.059400,83.076670,0.080521
551.541500,83.273190,0.079495
552.023600,83.492750,0.078351
552.505700,83.667080,0.077445
552.987900,83.867160,0.076408
553.470000,84.120060,0.075100
553.952100,84.356830,0.073880
554.434200,84.546170,0.072906
554.916300,84.668440,0.072278
555.398400,84.766440,0.071776
555.880600,84.842250,0.071388
556.362700,84.859110,0.071302
556.844800,84.854620,0.071325
557.326900,84.864620,0.071273
557.809000,84.908550,0.071049
558.291100,84.997950,0.070592
558.773300,85.051770,0.070317
559.255400,85.320880,0.068945
559.737500,85.640750,0.067320
560.219600,85.993360,0.065535
560.701700,86.324200,0.063867
561.183800,86.616850,0.062398
561.666000,86.797290,0.061494
562.148100,86.962190,0.060670
562.630200,87.089440,0.060035
563.112300,87.225310,0.059357
563.594400,87.315700,0.058908
564.076500,87.442830,0.058276
564.558700,87.561150,0.057689
565.040800,87.653330,0.057232
565.522900,87.728320,0.056860
566.005000,87.781730,0.056596
566.487100,87.836620,0.056324
566.969200,87.942370,0.055802
567.451400,88.119110,0.054930
567.933500,88.316440,0.053958
568.415600,88.440250,0.053350
568.897700,88.435140,0.053375
569.379800,88.420040,0.053449
569.861900,88.340150,0.053842
570.344100,88.262590,0.054223
570.826200,88.262180,0.054225
571.308300,88.326410,0.053909
571.790400,88.491800,0.053097
572.272500,88.699780,0.052077
572.754600,88.812520,0.051526
573.236800,88.937540,0.050915
573.718900,88.958600,0.050812
574.201000,88.878080,0.051205
574.683100,88.751790,0.051823
575.165200,88.628220,0.052428
575.647300,88.513650,0.052990
576.129500,88.402190,0.053537
576.611600,88.302790,0.054026
577.093700,88.219700,0.054434
577.575800,88.143170,0.054811
578.057900,88.077170,0.055137
578.540000,88.060230,0.055220
579.022200,88.127180,0.054890
579.504300,88.275590,0.054159
579.986400,88.472650,0.053191
580.468500,88.678340,0.052182
580.950600,88.848380,0.051350
581.432700,88.944290,0.050882
581.914900,88.951480,0.050847
582.397000,88.887050,0.051162
582.879100,88.776850,0.051700
583.361200,88.642310,0.052359
583.843300,88.498850,0.053062
584.325400,88.361820,0.053735
584.807600,88.240360,0.054333
585.289700,88.145270,0.054801
585.771800,88.103130,0.055009
586.253900,88.153850,0.054759
586.736000,88.314350,0.053969
587.218100,88.332010,0.053882
587.700300,88.355160,0.053768
588.182400,88.377090,0.053660
588.664500,88.388280,0.053605
589.146600,88.378810,0.053652
589.628700,88.341840,0.053834
590.110800,88.276330,0.054156
590.593000,88.187640,0.054592
591.075100,88.085680,0.055095
591.557200,87.981570,0.055608
592.039300,87.882950,0.056095
592.521400,87.792910,0.056541
593.003500,87.709880,0.056951
593.485700,87.630300,0.057346
593.967800,87.550830,0.057740
594.449900,87.469180,0.058145
594.932000,87.383900,0.058569
595.414100,87.293500,0.059018
595.896200,87.196580,0.059501
596.378400,87.093250,0.060016
596.860500,86.987490,0.060543
597.342600,86.889120,0.061035
597.824700,86.813250,0.061414
598.306800,86.777580,0.061592
598.788900,86.795870,0.061501
599.271100,86.872890,0.061116
599.753200,87.000720,0.060477
600.235300,87.160700,0.059679
600.717400,87.328120,0.058846
601.199500,87.479050,0.058096
601.681600,87.594860,0.057521
602.163800,87.665210,0.057173
602.645900,87.687470,0.057062
603.128000,87.665240,0.057173
603.610100,87.606290,0.057465
604.092200,87.521100,0.057887
604.574300,87.422280,0.058378
605.056500,87.324940,0.058862
605.538600,87.245080,0.059259
606.020700,87.197370,0.059497
606.502800,87.189660,0.059535
606.984900,87.219730,0.059385
607.467000,87.273800,0.059116
607.949200,87.330750,0.058833
608.431300,87.369370,0.058641
608.913400,87.376210,0.058607
609.395500,87.351070,0.058732
609.877600,87.306740,0.058952
610.359700,87.262560,0.059172
610.841900,87.234930,0.059310
611.324000,87.228680,0.059341
611.806100,87.234890,0.059310
612.288200,87.235530,0.059307
612.770300,87.213520,0.059416
613.252400,87.162850,0.059669
613.734600,87.094700,0.060008
614.216700,87.034550,0.060308
614.698800,87.013080,0.060415
615.180900,87.052710,0.060218
615.663000,87.157840,0.059694
616.145100,87.311160,0.058930
616.627300,87.479170,0.058095
617.109400,87.622670,0.057384
617.591500,87.710250,0.056950
618.073600,87.729000,0.056857
618.555700,87.688110,0.057059
619.037800,87.614040,0.057426
619.520000,87.540600,0.057790
620.002100,87.497550,0.058004
620.484200,87.503840,0.057973
620.966300,87.563290,0.057678
621.448400,87.665440,0.057172
621.930500,87.788840,0.056561
622.412700,87.907450,0.055974
622.894800,87.997010,0.055532
623.376900,88.041270,0.055314
623.859000,88.034300,0.055348
624.341100,87.981090,0.055611
624.823200,87.894810,0.056037
625.305400,87.792590,0.056542
625.787500,87.690070,0.057050
626.269600,87.597220,0.057510
626.751700,87.516140,0.057912
627.233800,87.442550,0.058277
627.715900,87.369400,0.058641
628.198100,87.290790,0.059032
628.680200,87.205280,0.059457
629.162300,87.116470,0.059900
629.644400,87.031680,0.060323
630.126500,86.958800,0.060686
630.608600,86.903750,0.060961
631.090800,86.869290,0.061134
631.572900,86.855030,0.061205
632.055000,86.859140,0.061184
632.537100,86.879100,0.061085
633.019200,86.912410,0.060918
633.501300,86.955890,0.060701
633.983500,87.005010,0.060456
634.465600,87.053630,0.060213
634.947700,87.094840,0.060008
635.429800,87.122550,0.059869
635.911900,87.133640,0.059814
636.394000,87.128460,0.059840
636.876200,87.110600,0.059929
637.358300,87.084840,0.060057
637.840400,87.054600,0.060208
638.322500,87.020480,0.060379
638.804600,86.980640,0.060577
639.286700,86.932610,0.060817
639.768900,86.876120,0.061100
640.251000,86.814600,0.061407
640.733100,86.755010,0.061705
641.215200,86.705650,0.061953
641.697300,86.672900,0.062117
642.179400,86.658800,0.062187
642.661600,86.660660,0.062178
643.143700,86.672400,0.062119
643.625800,86.687360,0.062044
644.107900,86.700830,0.061977
644.590000,86.711660,0.061922
645.072100,86.721860,0.061871
645.554300,86.734920,0.061806
646.036400,86.753500,0.061713
646.518500,86.777980,0.061590
647.000600,86.805920,0.061451
647.482700,86.832940,0.061315
647.964800,86.854260,0.061209
648.447000,86.866240,0.061149
648.929100,86.867100,0.061145
649.411200,86.857110,0.061195
649.893300,86.837830,0.061291
650.375400,86.811900,0.061421
650.857500,86.782620,0.061567
651.339700,86.754280,0.061709
651.821800,86.731770,0.061822
652.303900,86.719910,0.061881
652.786000,86.722020,0.061871
653.268100,86.738570,0.061788
653.750200,86.766590,0.061647
654.232400,86.800160,0.061479
654.714500,86.831980,0.061320
655.196600,86.855550,0.061202
655.678700,86.866940,0.061145
656.160800,86.865790,0.061151
656.642900,86.854330,0.061209
657.125100,86.835860,0.061301
657.607200,86.812680,0.061417
658.089300,86.785270,0.061554
658.571400,86.752490,0.061718
659.053500,86.713030,0.061916
659.535600,86.666700,0.062148
660.017800,86.615350,0.062405
660.499900,86.562110,0.062672
660.982000,86.510200,0.062933
661.464100,86.461370,0.063178
661.946200,86.415380,0.063409
662.428300,86.370170,0.063636
662.910500,86.323280,0.063872
663.392600,86.272830,0.064126
663.874700,86.218340,0.064400
664.356800,86.160190,0.064693
664.838900,86.098770,0.065003
665.321000,86.033430,0.065333
665.803200,85.962190,0.065693
666.285300,85.882150,0.066097
666.767400,85.791200,0.066557
667.249500,85.691140,0.067064
667.731600,85.590040,0.067577
668.213700,85.499520,0.068036
668.695900,85.426500,0.068407
669.178000,85.367810,0.068706
669.660100,85.314090,0.068979
670.142200,85.256330,0.069273
670.624300,85.189200,0.069615
671.106400,85.111320,0.070013
671.588600,85.024520,0.070456
672.070700,84.932460,0.070926
672.552800,84.839100,0.071404
673.034900,84.746890,0.071876
673.517000,84.655810,0.072343
673.999100,84.563540,0.072817
674.481300,84.467250,0.073312
674.963400,84.365450,0.073835
675.445500,84.258810,0.074385
675.927600,84.149830,0.074947
676.409700,84.041280,0.075507
676.891800,83.934520,0.076059
677.374000,83.828720,0.076607
677.856100,83.721910,0.077161
678.338200,83.612890,0.077727
678.820300,83.503290,0.078296
679.302400,83.398090,0.078844
679.784500,83.304560,0.079331
680.266700,83.229220,0.079724
680.748800,83.174910,0.080008
681.230900,83.139050,0.080195
681.713000,83.114260,0.080324
682.195100,83.090990,0.080446
682.677200,83.060670,0.080605
683.159400,83.018190,0.080827
683.641500,82.962610,0.081118
684.123600,82.896510,0.081464
684.605700,82.824040,0.081844
685.087800,82.749280,0.082236
685.569900,82.674860,0.082627
686.052100,82.601850,0.083010
686.534200,82.530440,0.083386
687.016300,82.460340,0.083755
687.498400,82.391040,0.084120
687.980500,82.321660,0.084486
688.462600,82.250660,0.084861
688.944800,82.176230,0.085254
689.426900,82.096710,0.085674
689.909000,82.011700,0.086124
690.391100,81.922570,0.086596
690.873200,81.832160,0.087076
691.355300,81.744010,0.087544
691.837500,81.660770,0.087987
692.319600,81.583240,0.088399
692.801700,81.510020,0.088789
693.283800,81.438080,0.089172
693.765900,81.364090,0.089567
694.248000,81.285290,0.089988
694.730200,81.199740,0.090445
695.212300,81.105890,0.090948
695.694400,81.001780,0.091505
696.176500,80.884810,0.092133
696.658600,80.751950,0.092847
697.140700,80.601030,0.093659
697.622900,80.431870,0.094572
698.105000,80.247150,0.095570
698.587100,80.052050,0.096628
699.069200,79.853130,0.097708
699.551300,79.656480,0.098779
700.033400,79.466260,0.099817
700.515600,79.284450,0.100812
700.997700,79.111360,0.101761
701.479800,78.947030,0.102664
701.961900,78.791800,0.103519
702.444000,78.646260,0.104322
702.926100,78.509690,0.105077
703.408300,78.378850,0.105801
703.890400,78.247360,0.106530
704.372500,78.106790,0.107311
704.854600,77.949120,0.108189
705.336700,77.769350,0.109192
705.818800,77.566880,0.110324
706.301000,77.345310,0.111566
706.783100,77.109940,0.112890
707.265200,76.864800,0.114272
707.747300,76.610410,0.115712
708.229400,76.343250,0.117229
708.711500,76.057400,0.118859
709.193700,75.747550,0.120631
709.675800,75.411220,0.122564
710.157900,75.049620,0.124652
710.640000,74.666150,0.126876
711.122100,74.263650,0.129224
711.604200,73.841840,0.131697
712.086400,73.396490,0.134325
712.568500,72.920920,0.137148
713.050600,72.409290,0.140206
713.532700,71.860020,0.143513
714.014800,71.277550,0.147047
714.496900,70.671640,0.150755
714.979100,70.054450,0.154564
715.461200,69.436550,0.158412
715.943300,68.824170,0.162259
716.425400,68.218210,0.166100
716.907500,67.615700,0.169952
717.389600,67.011830,0.173849
717.871800,66.401470,0.177822
718.353900,65.779280,0.181911
718.836000,65.139150,0.186158
719.318100,64.474300,0.190613
719.800200,63.779380,0.195320
720.282300,63.054660,0.200283
720.764500,62.310820,0.205437
721.246600,61.571870,0.210618
721.728700,60.874240,0.215566
722.210800,60.261410,0.219961
722.692900,59.776110,0.223472
723.175000,59.452320,0.225831
723.657200,59.310620,0.226868
724.139300,59.357620,0.226524
724.621400,59.588990,0.224834
725.103500,59.993290,0.221897
725.585600,60.554770,0.217852
726.067700,61.254000,0.212866
726.549900,62.067370,0.207137
727.032000,62.967480,0.200884
727.514100,63.925520,0.194326
727.996200,64.915310,0.187653
728.478300,65.917470,0.180999
728.960400,66.921630,0.174433
729.442600,67.925960,0.167964
729.924700,68.934010,0.161566
730.406800,69.950710,0.155208
730.888900,70.979060,0.148870
731.371000,72.019160,0.142552
731.853100,73.068850,0.136268
732.335300,74.125460,0.130033
732.817400,75.186810,0.123858
733.299500,76.251060,0.117754
733.781600,77.315260,0.111735
734.263700,78.374140,0.105827
734.745800,79.419640,0.100072
735.228000,80.441820,0.094518
735.710100,81.430540,0.089213
736.192200,82.377200,0.084193
736.674300,83.275490,0.079483
737.156400,84.121280,0.075094
737.638500,84.911800,0.071032
738.120700,85.645000,0.067298
738.602800,86.319230,0.063892
739.084900,86.933360,0.060814
739.567000,87.486980,0.058057
740.049100,87.980570,0.055613
740.531300,88.415150,0.053473
741.013400,88.792190,0.051625
741.495500,89.113080,0.050059
741.977600,89.379460,0.048762
742.459700,89.593570,0.047723
742.941800,89.758690,0.046923
743.424000,89.879250,0.046341
743.906100,89.960930,0.045946
744.388200,90.010010,0.045709
744.870300,90.032950,0.045599
745.352400,90.035610,0.045586
745.834500,90.022790,0.045648
746.316700,89.997910,0.045768
746.798800,89.963240,0.045935
747.280900,89.920200,0.046143
747.763000,89.870060,0.046385
748.245100,89.814190,0.046655
748.727200,89.754620,0.046943
749.209400,89.693700,0.047238
749.691500,89.633820,0.047528
750.173600,89.577000,0.047803
750.655700,89.524580,0.048058
751.137800,89.477070,0.048288
751.619900,89.434420,0.048495
752.102100,89.396080,0.048682
752.584200,89.361340,0.048850
753.066300,89.329280,0.049006
753.548400,89.298890,0.049154
754.030500,89.269420,0.049297
754.512600,89.240620,0.049437
754.994800,89.213170,0.049571
755.476900,89.188740,0.049690
755.959000,89.169730,0.049783
756.441100,89.158290,0.049838
756.923200,89.155290,0.049853
757.405300,89.159360,0.049833
757.887500,89.166810,0.049797
758.369600,89.172380,0.049770
758.851700,89.170820,0.049777
759.333800,89.158530,0.049837
759.815900,89.134720,0.049953
760.298000,89.101290,0.050116
760.780200,89.061820,0.050308
761.262300,89.019740,0.050514
761.744400,88.976650,0.050724
762.226500,88.931720,0.050943
762.708600,88.882350,0.051184
763.190700,88.825830,0.051461
763.672900,88.761370,0.051776
764.155000,88.691540,0.052118
764.637100,88.622100,0.052458
765.119200,88.560690,0.052759
765.601300,88.514560,0.052985
766.083400,88.488290,0.053114
766.565600,88.482740,0.053141
767.047700,88.495330,0.053080
767.529800,88.521280,0.052952
768.011900,88.555490,0.052785
768.494000,88.593770,0.052597
768.976100,88.633540,0.052402
769.458300,88.673320,0.052207
769.940400,88.712160,0.052017
770.422500,88.748700,0.051838
770.904600,88.781180,0.051679
771.386700,88.807550,0.051550
771.868800,88.826440,0.051458
772.351000,88.837390,0.051404
772.833100,88.841150,0.051386
773.315200,88.839360,0.051395
773.797300,88.833610,0.051423
774.279400,88.824840,0.051466
774.761500,88.812880,0.051524
775.243700,88.796590,0.051604
775.725800,88.774500,0.051712
776.207900,88.745200,0.051855
776.690000,88.707930,0.052038
777.172100,88.662470,0.052260
777.654200,88.609000,0.052522
778.136400,88.547840,0.052822
778.618500,88.479390,0.053158
779.100600,88.404240,0.053527
779.582700,88.323440,0.053924
780.064800,88.238650,0.054341
780.546900,88.151700,0.054769
781.029100,88.064090,0.055201
781.511200,87.976410,0.055634
781.993300,87.887770,0.056072
782.475400,87.796130,0.056525
782.957500,87.698730,0.057007
783.439600,87.593140,0.057530
783.921800,87.478030,0.058101
784.403900,87.353610,0.058719
784.886000,87.221410,0.059377
785.368100,87.083890,0.060062
785.850200,86.943530,0.060763
786.332300,86.802480,0.061468
786.814500,86.662200,0.062170
787.296600,86.523590,0.062865
787.778700,86.387150,0.063551
788.260800,86.253230,0.064225
788.742900,86.122380,0.064884
789.225000,85.995650,0.065524
789.707200,85.874960,0.066133
790.189300,85.763680,0.066697
790.671400,85.666560,0.067189
791.153500,85.589610,0.067579
791.635600,85.539020,0.067836
792.117700,85.520110,0.067932
792.599900,85.535990,0.067851
793.082000,85.586940,0.067593
793.564100,85.670540,0.067168
794.046200,85.782330,0.066602
794.528300,85.916590,0.065923
795.010400,86.067090,0.065163
795.492600,86.227200,0.064356
795.974700,86.390070,0.063536
796.456800,86.548580,0.062740
796.938900,86.696010,0.062001
797.421000,86.826640,0.061347
797.903100,86.936780,0.060796
798.385300,87.025470,0.060354
798.867400,87.094670,0.060008
799.349500,87.148700,0.059739
799.831600,87.193010,0.059518
800.313700,87.232640,0.059321
800.795800,87.270740,0.059131
801.278000,87.308070,0.058946
801.760100,87.343090,0.058771
802.242200,87.373090,0.058622
802.724300,87.395680,0.058510
803.206400,87.409710,0.058440
803.688500,87.416110,0.058409
804.170700,87.417680,0.058401
804.652800,87.418180,0.058398
805.134900,87.421240,0.058383
805.617000,87.429410,0.058342
806.099100,87.443720,0.058271
806.581200,87.463640,0.058172
807.063400,87.487530,0.058054
807.545500,87.513250,0.057926
808.027600,87.538730,0.057800
808.509700,87.562400,0.057682
808.991800,87.583430,0.057578
809.473900,87.601730,0.057487
809.956100,87.617800,0.057408
810.438200,87.632320,0.057336
810.920300,87.645930,0.057268
811.402400,87.658910,0.057204
811.884500,87.671090,0.057144
812.366600,87.681930,0.057090
812.848800,87.690830,0.057046
813.330900,87.697560,0.057012
813.813000,87.702580,0.056988
814.295100,87.707180,0.056965
814.777200,87.713530,0.056933
815.259300,87.723950,0.056882
815.741500,87.740520,0.056800
816.223600,87.764320,0.056682
816.705700,87.795190,0.056529
817.187800,87.831620,0.056349
817.669900,87.871090,0.056154
818.152000,87.910550,0.055959
818.634200,87.947030,0.055779
819.116300,87.978100,0.055625
819.598400,88.002310,0.055506
820.080500,88.019330,0.055422
820.562600,88.029760,0.055370
821.044700,88.034970,0.055345
821.526900,88.036490,0.055337
822.009000,88.035700,0.055341
822.491100,88.033290,0.055353
822.973200,88.029160,0.055373
823.455300,88.022290,0.055407
823.937400,88.011320,0.055461
824.419600,87.994930,0.055542
824.901700,87.972570,0.055653
825.383800,87.944830,0.055790
825.865900,87.913550,0.055944
826.348000,87.881430,0.056103
826.830100,87.851320,0.056252
827.312300,87.825330,0.056380
827.794400,87.804230,0.056485
828.276500,87.787280,0.056568
828.758600,87.772510,0.056641
829.240700,87.757390,0.056716
829.722800,87.739450,0.056805
830.205000,87.716930,0.056917
830.687100,87.688790,0.057056
831.169200,87.654590,0.057225
831.651300,87.614370,0.057425
832.133400,87.568210,0.057654
832.615500,87.516400,0.057911
833.097700,87.459500,0.058193
833.579800,87.398440,0.058496
834.061900,87.334480,0.058814
834.544000,87.268870,0.059141
835.026100,87.202250,0.059472
835.508200,87.134380,0.059810
835.990400,87.063940,0.060162
836.472500,86.989010,0.060536
836.954600,86.907840,0.060941
837.436700,86.819770,0.061381
837.918800,86.725590,0.061853
838.400900,86.627660,0.062343
838.883100,86.528900,0.062839
839.365200,86.431970,0.063326
839.847300,86.338060,0.063798
840.329400,86.246600,0.064258
840.811500,86.155530,0.064717
841.293600,86.062030,0.065188
841.775800,85.963590,0.065685
842.257900,85.858960,0.066214
842.740000,85.748570,0.066773
843.222100,85.634510,0.067351
843.704200,85.520250,0.067931
844.186300,85.410120,0.068491
844.668500,85.309060,0.069005
845.150600,85.222360,0.069446
845.632700,85.155460,0.069788
846.114800,85.113550,0.070001
846.596900,85.101170,0.070064
847.079000,85.121520,0.069961
847.561200,85.176140,0.069682
848.043300,85.264530,0.069232
848.525400,85.384230,0.068622
849.007500,85.530980,0.067877
849.489600,85.699180,0.067023
849.971700,85.882520,0.066095
850.453900,86.074590,0.065125
850.936000,86.269560,0.064142
851.418100,86.462440,0.063173
851.900200,86.649120,0.062236
852.382300,86.826360,0.061348
852.864400,86.991570,0.060523
853.346600,87.143040,0.059767
853.828700,87.280140,0.059085
854.310800,87.403500,0.058471
854.792900,87.514860,0.057918
855.275000,87.616600,0.057414
855.757100,87.711000,0.056946
856.239300,87.799440,0.056508
856.721400,87.882220,0.056099
857.203500,87.958660,0.055721
857.685600,88.027570,0.055381
858.167700,88.087970,0.055083
858.649800,88.139250,0.054831
859.132000,88.181130,0.054624
859.614100,88.213120,0.054467
860.096200,88.234020,0.054364
860.578300,88.242100,0.054324
861.060400,88.235390,0.054357
861.542500,88.212680,0.054469
862.024700,88.174050,0.054659
862.506800,88.120950,0.054921
862.988900,88.055380,0.055244
863.471000,87.978600,0.055623
863.953100,87.889760,0.056062
864.435200,87.785200,0.056579
864.917400,87.658670,0.057205
865.399500,87.502360,0.057980
865.881600,87.308050,0.058946
866.363700,87.068210,0.060140
866.845800,86.776260,0.061599
867.327900,86.426790,0.063352
867.810100,86.016150,0.065420
868.292200,85.544140,0.067810
868.774300,85.016840,0.070495
869.256400,84.450030,0.073400
869.738500,83.871340,0.076386
870.220600,83.320200,0.079250
