wavenumber,transmittance,absorbance
550.095200,103.436300,-0.014673
550.577300,103.345000,-0.014289
551.059400,103.260900,-0.013936
551.541500,103.207500,-0.013711
552.023600,103.200900,-0.013683
552.505700,103.245500,-0.013871
552.987900,103.349800,-0.014310
553.470000,103.454000,-0.014747
553.952100,103.540000,-0.015108
554.434200,103.569900,-0.015234
554.916300,103.533000,-0.015079
555.398400,103.445400,-0.014711
555.880600,103.353800,-0.014326
556.362700,103.219400,-0.013761
556.844800,103.080700,-0.013177
557.326900,102.957000,-0.012656
557.809000,102.879500,-0.012329
558.291100,102.858000,-0.012238
558.773300,102.884700,-0.012351
559.255400,103.019300,-0.012919
559.737500,103.189400,-0.013635
560.219600,103.383300,-0.014450
560.701700,103.554800,-0.015170
561.183800,103.662700,-0.015623
561.666000,103.691300,-0.015742
562.148100,103.659700,-0.015610
562.630200,103.570900,-0.015238
563.112300,103.458100,-0.014764
563.594400,103.371200,-0.014400
564.076500,103.292300,-0.014068
564.558700,103.246200,-0.013874
565.040800,103.245500,-0.013871
565.522900,103.264400,-0.013951
566.005000,103.286600,-0.014044
566.487100,103.297100,-0.014088
566.969200,103.291500,-0.014065
567.451400,103.275600,-0.013998
567.933500,103.249500,-0.013888
568.415600,103.241800,-0.013856
568.897700,103.196300,-0.013664
569.379800,103.179400,-0.013593
569.861900,103.181100,-0.013600
570.344100,103.191000,-0.013642
570.826200,103.190400,-0.013639
571.308300,103.150500,-0.013471
571.790400,103.061600,-0.013097
572.272500,102.918600,-0.012494
572.754600,102.731800,-0.011705
573.236800,102.552600,-0.010947
573.718900,102.391300,-0.010263
574.201000,102.250800,-0.009667
574.683100,102.132000,-0.009162
575.165200,102.028800,-0.008723
575.647300,101.926500,-0.008287
576.129500,101.808900,-0.007786
576.611600,101.677700,-0.007226
577.093700,101.546100,-0.006663
577.575800,101.424700,-0.006144
578.057900,101.316300,-0.005679
578.540000,101.227800,-0.005300
579.022200,101.168800,-0.005047
579.504300,101.143400,-0.004938
579.986400,101.145700,-0.004947
580.468500,101.163900,-0.005026
580.950600,101.185600,-0.005119
581.432700,101.199400,-0.005178
581.914900,101.192300,-0.005147
582.397000,101.156300,-0.004993
582.879100,101.088000,-0.004700
583.361200,100.991800,-0.004286
583.843300,100.879800,-0.003804
584.325400,100.771600,-0.003338
584.807600,100.689100,-0.002982
585.289700,100.649600,-0.002812
585.771800,100.662800,-0.002869
586.253900,100.731000,-0.003163
586.736000,100.844700,-0.003653
587.218100,100.887900,-0.003839
587.700300,100.898700,-0.003886
588.182400,100.878300,-0.003798
588.664500,100.844900,-0.003654
589.146600,100.823700,-0.003563
589.628700,100.833500,-0.003605
590.110800,100.875600,-0.003786
590.593000,100.932100,-0.004029
591.075100,100.972500,-0.004203
591.557200,100.969600,-0.004191
592.039300,100.913700,-0.003950
592.521400,100.820000,-0.003547
593.003500,100.719600,-0.003114
593.485700,100.647200,-0.002802
593.967800,100.625100,-0.002706
594.449900,100.655500,-0.002838
594.932000,100.719800,-0.003115
595.414100,100.788200,-0.003410
595.896200,100.833100,-0.003603
596.378400,100.841500,-0.003639
596.860500,100.817500,-0.003536
597.342600,100.778500,-0.003368
597.824700,100.744000,-0.003219
598.306800,100.726500,-0.003144
598.788900,100.725800,-0.003141
599.271100,100.729700,-0.003158
599.753200,100.721600,-0.003123
600.235300,100.688900,-0.002982
600.717400,100.629000,-0.002723
601.199500,100.550700,-0.002385
601.681600,100.470600,-0.002039
602.163800,100.408300,-0.001770
602.645900,100.380100,-0.001648
603.128000,100.396300,-0.001718
603.610100,100.459900,-0.001993
604.092200,100.566800,-0.002455
604.574300,100.707400,-0.003061
605.056500,100.865600,-0.003743
605.538600,101.019400,-0.004405
606.020700,101.142900,-0.004935
606.502800,101.212100,-0.005232
606.984900,101.213200,-0.005237
607.467000,101.149400,-0.004963
607.949200,101.042000,-0.004502
608.431300,100.924200,-0.003995
608.913400,100.830500,-0.003592
609.395500,100.785000,-0.003396
609.877600,100.792800,-0.003430
610.359700,100.838000,-0.003624
610.841900,100.890300,-0.003849
611.324000,100.917500,-0.003966
611.806100,100.897900,-0.003882
612.288200,100.826400,-0.003574
612.770300,100.712700,-0.003084
613.252400,100.574000,-0.002486
613.734600,100.425900,-0.001846
614.216700,100.276500,-0.001199
614.698800,100.126800,-0.000550
615.180900,99.975710,0.000106
615.663000,99.827060,0.000752
616.145100,99.693050,0.001335
616.627300,99.592910,0.001772
617.109400,99.544840,0.001981
617.591500,99.556910,0.001929
618.073600,99.620090,0.001653
618.555700,99.710010,0.001261
619.037800,99.795230,0.000890
619.520000,99.849370,0.000655
620.002100,99.858790,0.000614
620.484200,99.825060,0.000760
620.966300,99.761080,0.001039
621.448400,99.685130,0.001370
621.930500,99.614050,0.001679
622.412700,99.559470,0.001917
622.894800,99.526680,0.002060
623.376900,99.516900,0.002103
623.859000,99.527910,0.002055
624.341100,99.555340,0.001935
624.823200,99.591190,0.001779
625.305400,99.624020,0.001636
625.787500,99.640500,0.001564
626.269600,99.629830,0.001611
626.751700,99.587670,0.001794
627.233800,99.518720,0.002095
627.715900,99.434950,0.002461
628.198100,99.351590,0.002825
628.680200,99.281260,0.003133
629.162300,99.229900,0.003357
629.644400,99.195250,0.003509
630.126500,99.169970,0.003620
630.608600,99.146900,0.003721
631.090800,99.124030,0.003821
631.572900,99.106290,0.003899
632.055000,99.103350,0.003912
632.537100,99.124170,0.003820
633.019200,99.171760,0.003612
633.501300,99.239800,0.003314
633.983500,99.314730,0.002986
634.465600,99.380650,0.002698
634.947700,99.426030,0.002500
635.429800,99.446970,0.002408
635.911900,99.447040,0.002408
636.394000,99.432970,0.002470
636.876200,99.409480,0.002572
637.358300,99.375930,0.002719
637.840400,99.327030,0.002933
638.322500,99.256810,0.003240
638.804600,99.163980,0.003646
639.286700,99.054670,0.004125
639.768900,98.941820,0.004620
640.251000,98.840270,0.005066
640.733100,98.760820,0.005415
641.215200,98.705330,0.005659
641.697300,98.666890,0.005829
642.179400,98.633190,0.005977
642.661600,98.593030,0.006154
643.143700,98.540620,0.006385
643.625800,98.477290,0.006664
644.107900,98.409100,0.006965
644.590000,98.342760,0.007258
645.072100,98.281560,0.007528
645.554300,98.224590,0.007780
646.036400,98.168540,0.008028
646.518500,98.111440,0.008280
647.000600,98.055430,0.008528
647.482700,98.006900,0.008743
647.964800,97.973790,0.008890
648.447000,97.960900,0.008947
648.929100,97.966960,0.008920
649.411200,97.984010,0.008845
649.893300,98.000560,0.008771
650.375400,98.006630,0.008745
650.857500,97.997100,0.008787
651.339700,97.972700,0.008895
651.821800,97.937790,0.009050
652.303900,97.896790,0.009232
652.786000,97.851300,0.009433
653.268100,97.799670,0.009663
653.750200,97.739530,0.009930
654.232400,97.671040,0.010234
654.714500,97.599100,0.010554
655.196600,97.532570,0.010850
655.678700,97.480530,0.011082
656.160800,97.448010,0.011227
656.642900,97.433430,0.011292
657.125100,97.430170,0.011307
657.607200,97.430920,0.011303
658.089300,97.432970,0.011294
658.571400,97.440350,0.011261
659.053500,97.462100,0.011164
659.535600,97.506540,0.010966
660.017800,97.575600,0.010659
660.499900,97.662270,0.010273
660.982000,97.753620,0.009867
661.464100,97.837030,0.009497
661.946200,97.906320,0.009189
662.428300,97.963260,0.008937
662.910500,98.013000,0.008716
663.392600,98.054440,0.008533
663.874700,98.071200,0.008459
664.356800,98.027270,0.008653
664.838900,97.869480,0.009353
665.321000,97.534680,0.010841
665.803200,96.961970,0.013399
666.285300,96.117230,0.017199
666.767400,95.039330,0.022097
667.249500,93.900160,0.027334
667.731600,93.011380,0.031464
668.213700,92.682920,0.033000
668.695900,93.001020,0.031512
669.178000,93.778920,0.027895
669.660100,94.727880,0.023522
670.142200,95.624220,0.019432
670.624300,96.352660,0.016136
671.106400,96.878620,0.013772
671.588600,97.213330,0.012274
672.070700,97.391240,0.011480
672.552800,97.456470,0.011189
673.034900,97.452010,0.011209
673.517000,97.411320,0.011391
673.999100,97.354160,0.011645
674.481300,97.289090,0.011936
674.963400,97.219420,0.012247
675.445500,97.149260,0.012561
675.927600,97.085500,0.012846
676.409700,97.035800,0.013068
676.891800,97.004500,0.013208
677.374000,96.990140,0.013272
677.856100,96.985970,0.013291
678.338200,96.983860,0.013301
678.820300,96.978200,0.013326
679.302400,96.968270,0.013370
679.784500,96.957310,0.013419
680.266700,96.949300,0.013455
680.748800,96.945520,0.013472
681.230900,96.943130,0.013483
681.713000,96.936780,0.013511
682.195100,96.922350,0.013576
682.677200,96.900210,0.013675
683.159400,96.876490,0.013782
683.641500,96.861050,0.013851
684.123600,96.863210,0.013841
684.605700,96.887380,0.013733
685.087800,96.931170,0.013537
685.569900,96.986610,0.013288
686.052100,97.044240,0.013030
686.534200,97.096950,0.012794
687.016300,97.142300,0.012592
687.498400,97.182230,0.012413
687.980500,97.220520,0.012242
688.462600,97.259900,0.012066
688.944800,97.300530,0.011885
689.426900,97.340040,0.011708
689.909000,97.375800,0.011549
690.391100,97.406620,0.011412
690.873200,97.433680,0.011291
691.355300,97.459500,0.011176
691.837500,97.486080,0.011057
692.319600,97.512960,0.010938
692.801700,97.537030,0.010830
693.283800,97.553850,0.010756
693.765900,97.560210,0.010727
694.248000,97.555950,0.010746
694.730200,97.544270,0.010798
695.212300,97.530430,0.010860
695.694400,97.518940,0.010911
696.176500,97.511510,0.010944
696.658600,97.506480,0.010967
697.140700,97.500110,0.010995
697.622900,97.489070,0.011044
698.105000,97.472370,0.011118
698.587100,97.451700,0.011211
699.069200,97.430050,0.011307
699.551300,97.409130,0.011400
700.033400,97.387630,0.011496
700.515600,97.361150,0.011614
700.997700,97.324140,0.011779
701.479800,97.272800,0.012009
701.961900,97.207030,0.012302
702.444000,97.130700,0.012643
702.926100,97.049410,0.013007
703.408300,96.967510,0.013374
703.890400,96.885310,0.013742
704.372500,96.798700,0.014130
704.854600,96.701160,0.014568
705.336700,96.586920,0.015082
705.818800,96.453750,0.015681
706.301000,96.303470,0.016358
706.783100,96.140160,0.017095
707.265200,95.966960,0.017878
707.747300,95.783300,0.018710
708.229400,95.584470,0.019613
708.711500,95.363180,0.020619
709.193700,95.112590,0.021762
709.675800,94.828230,0.023062
710.157900,94.507480,0.024534
710.640000,94.146370,0.026196
711.122100,93.735720,0.028095
711.604200,93.258770,0.030310
712.086400,92.692860,0.032954
712.568500,92.014530,0.036144
713.050600,91.206890,0.039972
713.532700,90.265010,0.044481
714.014800,89.197720,0.049646
714.496900,88.024030,0.055399
714.979100,86.766610,0.061647
715.461200,85.446320,0.068307
715.943300,84.082120,0.075296
716.425400,82.698220,0.082504
716.907500,81.336430,0.089715
717.389600,80.066980,0.096547
717.871800,78.990810,0.102423
718.353900,78.227490,0.106641
718.836000,77.889600,0.108521
719.318100,78.050510,0.107624
719.800200,78.718640,0.103922
720.282300,79.829060,0.097839
720.764500,81.256740,0.090141
721.246600,82.845500,0.081731
721.728700,84.441640,0.073443
722.210800,85.921670,0.065897
722.692900,87.207480,0.059446
723.175000,88.267520,0.054199
723.657200,89.106750,0.050089
724.139300,89.750470,0.046963
724.621400,90.228010,0.044659
725.103500,90.560550,0.043061
725.585600,90.755430,0.042127
726.067700,90.806560,0.041883
726.549900,90.700450,0.042391
727.032000,90.425440,0.043709
727.514100,89.982560,0.045842
727.996200,89.395590,0.048684
728.478300,88.718050,0.051988
728.960400,88.033970,0.055350
729.442600,87.450450,0.058238
729.924700,87.080790,0.060078
730.406800,87.020840,0.060377
730.888900,87.325520,0.058859
731.371000,87.993680,0.055549
731.853100,88.966900,0.050772
732.335300,90.143020,0.045068
732.817400,91.398940,0.039059
733.299500,92.616620,0.033311
733.781600,93.704860,0.028238
734.263700,94.612270,0.024053
734.745800,95.328290,0.020778
735.228000,95.873850,0.018300
735.710100,96.286000,0.016437
736.192200,96.602910,0.015010
736.674300,96.854350,0.013881
737.156400,97.059020,0.012964
737.638500,97.227420,0.012211
738.120700,97.366490,0.011590
738.602800,97.483220,0.011070
739.084900,97.585130,0.010616
739.567000,97.678670,0.010200
740.049100,97.766770,0.009809
740.531300,97.848340,0.009447
741.013400,97.919470,0.009131
741.495500,97.976340,0.008879
741.977600,98.017970,0.008694
742.459700,98.047270,0.008564
742.941800,98.069770,0.008465
743.424000,98.091000,0.008371
743.906100,98.113980,0.008269
744.388200,98.138300,0.008161
744.870300,98.161250,0.008060
745.352400,98.180110,0.007976
745.834500,98.194370,0.007913
746.316700,98.206460,0.007860
746.798800,98.220600,0.007797
747.280900,98.240460,0.007710
747.763000,98.267070,0.007592
748.245100,98.298150,0.007455
748.727200,98.329190,0.007318
749.209400,98.355720,0.007200
749.691500,98.375570,0.007113
750.173600,98.389720,0.007050
750.655700,98.401630,0.006998
751.137800,98.415120,0.006938
751.619900,98.432330,0.006862
752.102100,98.452690,0.006772
752.584200,98.473370,0.006681
753.066300,98.490970,0.006604
753.548400,98.503380,0.006549
754.030500,98.510680,0.006517
754.512600,98.514840,0.006498
754.994800,98.518290,0.006483
755.476900,98.522550,0.006464
755.959000,98.527390,0.006443
756.441100,98.531300,0.006426
756.923200,98.532720,0.006420
757.405300,98.531250,0.006426
757.887500,98.528200,0.006439
758.369600,98.526020,0.006449
758.851700,98.527080,0.006444
759.333800,98.532360,0.006421
759.815900,98.541080,0.006383
760.298000,98.551090,0.006339
760.780200,98.560140,0.006299
761.262300,98.567050,0.006268
761.744400,98.572120,0.006246
762.226500,98.576860,0.006225
762.708600,98.582770,0.006199
763.190700,98.590550,0.006165
763.672900,98.599590,0.006125
764.155000,98.608470,0.006086
764.637100,98.615940,0.006053
765.119200,98.621620,0.006028
765.601300,98.626230,0.006008
766.083400,98.630870,0.005987
766.565600,98.636280,0.005963
767.047700,98.641960,0.005938
767.529800,98.646440,0.005919
768.011900,98.648000,0.005912
768.494000,98.645870,0.005921
768.976100,98.640850,0.005943
769.458300,98.635160,0.005968
769.940400,98.631300,0.005985
770.422500,98.630700,0.005988
770.904600,98.632740,0.005979
771.386700,98.635020,0.005969
771.868800,98.634510,0.005971
772.351000,98.629150,0.005995
772.833100,98.619090,0.006039
773.315200,98.606870,0.006093
773.797300,98.596240,0.006140
774.279400,98.590500,0.006165
774.761500,98.590970,0.006163
775.243700,98.596470,0.006139
775.725800,98.604140,0.006105
776.207900,98.610800,0.006076
776.690000,98.614370,0.006060
777.172100,98.614570,0.006059
777.654200,98.612580,0.006068
778.136400,98.609690,0.006080
778.618500,98.606460,0.006095
779.100600,98.602160,0.006114
779.582700,98.595170,0.006144
780.064800,98.584040,0.006193
780.546900,98.568510,0.006262
781.029100,98.549430,0.006346
781.511200,98.528360,0.006439
781.993300,98.506210,0.006536
782.475400,98.482670,0.006640
782.957500,98.455890,0.006758
783.439600,98.423900,0.006899
783.921800,98.385690,0.007068
784.403900,98.342600,0.007258
784.886000,98.298140,0.007455
785.368100,98.256930,0.007637
785.850200,98.222530,0.007789
786.332300,98.195920,0.007907
786.814500,98.174830,0.008000
787.296600,98.154520,0.008090
787.778700,98.129750,0.008199
788.260800,98.096780,0.008345
788.742900,98.054740,0.008531
789.225000,98.005650,0.008749
789.707200,97.953100,0.008982
790.189300,97.900700,0.009214
790.671400,97.850650,0.009436
791.153500,97.803420,0.009646
791.635600,97.758420,0.009846
792.117700,97.714980,0.010039
792.599900,97.673260,0.010224
793.082000,97.634320,0.010397
793.564100,97.599590,0.010552
794.046200,97.570080,0.010683
794.528300,97.545620,0.010792
795.010400,97.525140,0.010883
795.492600,97.507010,0.010964
795.974700,97.489970,0.011040
796.456800,97.473550,0.011113
796.938900,97.458060,0.011182
797.421000,97.443960,0.011245
797.903100,97.431230,0.011302
798.385300,97.419040,0.011356
798.867400,97.406100,0.011414
799.349500,97.391300,0.011480
799.831600,97.374550,0.011555
800.313700,97.356880,0.011633
800.795800,97.340240,0.011708
801.278000,97.326420,0.011769
801.760100,97.316250,0.011815
802.242200,97.309230,0.011846
802.724300,97.304090,0.011869
803.206400,97.299400,0.011890
803.688500,97.294850,0.011910
804.170700,97.291630,0.011925
804.652800,97.292110,0.011922
805.134900,97.298970,0.011892
805.617000,97.313960,0.011825
806.099100,97.337270,0.011721
806.581200,97.367480,0.011586
807.063400,97.402020,0.011432
807.545500,97.438270,0.011270
808.027600,97.474050,0.011111
808.509700,97.508110,0.010959
808.991800,97.539740,0.010818
809.473900,97.568500,0.010690
809.956100,97.593860,0.010578
810.438200,97.615290,0.010482
810.920300,97.632570,0.010405
811.402400,97.646120,0.010345
811.884500,97.656940,0.010297
812.366600,97.666310,0.010255
812.848800,97.675000,0.010217
813.330900,97.683020,0.010181
813.813000,97.689670,0.010151
814.295100,97.694100,0.010132
814.777200,97.696150,0.010123
815.259300,97.696920,0.010119
815.741500,97.698720,0.010111
816.223600,97.704170,0.010087
816.705700,97.715080,0.010038
817.187800,97.731420,0.009966
817.669900,97.751170,0.009878
818.152000,97.771000,0.009790
818.634200,97.787650,0.009716
819.116300,97.799300,0.009664
819.598400,97.806460,0.009632
820.080500,97.811710,0.009609
820.562600,97.818790,0.009578
821.044700,97.831150,0.009523
821.526900,97.850870,0.009435
822.009000,97.878140,0.009314
822.491100,97.911600,0.009166
822.973200,97.949010,0.009000
823.455300,97.988040,0.008827
823.937400,98.026730,0.008655
824.419600,98.063670,0.008492
824.901700,98.098120,0.008339
825.383800,98.129860,0.008199
825.865900,98.159520,0.008068
826.348000,98.188670,0.007939
826.830100,98.219830,0.007801
827.312300,98.255680,0.007642
827.794400,98.298230,0.007454
828.276500,98.347760,0.007236
828.758600,98.402250,0.006995
829.240700,98.457730,0.006750
829.722800,98.509430,0.006522
830.205000,98.553340,0.006329
830.687100,98.587560,0.006178
831.169200,98.612790,0.006067
831.651300,98.631800,0.005983
832.133400,98.648050,0.005911
832.615500,98.664360,0.005840
833.097700,98.681980,0.005762
833.579800,98.700800,0.005679
834.061900,98.720030,0.005595
834.544000,98.739260,0.005510
835.026100,98.758850,0.005424
835.508200,98.779670,0.005332
835.990400,98.802200,0.005233
836.472500,98.825630,0.005130
836.954600,98.847650,0.005034
837.436700,98.865190,0.004957
837.918800,98.875580,0.004911
838.400900,98.878140,0.004900
838.883100,98.874570,0.004915
839.365200,98.868460,0.004942
839.847300,98.863810,0.004963
840.329400,98.863200,0.004965
840.811500,98.866880,0.004949
841.293600,98.872880,0.004923
841.775800,98.878250,0.004899
842.257900,98.880780,0.004888
842.740000,98.880120,0.004891
843.222100,98.878070,0.004900
843.704200,98.877370,0.004903
844.186300,98.880290,0.004890
844.668500,98.887240,0.004860
845.150600,98.896570,0.004819
845.632700,98.905420,0.004780
846.114800,98.911200,0.004755
846.596900,98.913090,0.004746
847.079000,98.912480,0.004749
847.561200,98.912250,0.004750
848.043300,98.915310,0.004736
848.525400,98.923040,0.004703
849.007500,98.934680,0.004651
849.489600,98.947430,0.004595
849.971700,98.957920,0.004549
850.453900,98.963470,0.004525
850.936000,98.963280,0.004526
851.418100,98.958430,0.004547
851.900200,98.951250,0.004579
852.382300,98.944110,0.004610
852.864400,98.938780,0.004633
853.346600,98.935850,0.004646
853.828700,98.935200,0.004649
854.310800,98.936360,0.004644
854.792900,98.938900,0.004633
855.275000,98.942340,0.004618
855.757100,98.945780,0.004603
856.239300,98.947680,0.004594
856.721400,98.946010,0.004602
857.203500,98.938740,0.004634
857.685600,98.924840,0.004695
858.167700,98.904950,0.004782
858.649800,98.881480,0.004885
859.132000,98.857880,0.004989
859.614100,98.837590,0.005078
860.096200,98.822880,0.005142
860.578300,98.814160,0.005181
861.060400,98.810230,0.005198
861.542500,98.809030,0.005203
862.024700,98.808660,0.005205
862.506800,98.808270,0.005207
862.988900,98.808110,0.005207
863.471000,98.809160,0.005203
863.953100,98.812530,0.005188
864.435200,98.818680,0.005161
864.917400,98.827310,0.005123
865.399500,98.837500,0.005078
865.881600,98.848020,0.005032
