wavenumber,transmittance,absorbance
550.095200,96.142210,0.017086
550.577300,96.286800,0.016433
551.059400,96.431720,0.015780
551.541500,96.569310,0.015161
552.023600,96.722970,0.014470
552.505700,96.816430,0.014051
552.987900,96.981660,0.013310
553.470000,97.163000,0.012499
553.952100,97.310170,0.011842
554.434200,97.433030,0.011294
554.916300,97.528470,0.010869
555.398400,97.616210,0.010478
555.880600,97.667570,0.010250
556.362700,97.671650,0.010231
556.844800,97.648880,0.010333
557.326900,97.602680,0.010538
557.809000,97.540260,0.010816
558.291100,97.501600,0.010988
558.773300,97.410100,0.011396
559.255400,97.488390,0.011047
559.737500,97.596770,0.010565
560.219600,97.713600,0.010045
560.701700,97.799110,0.009665
561.183800,97.837470,0.009495
561.666000,97.791260,0.009700
562.148100,97.755000,0.009861
562.630200,97.762700,0.009827
563.112300,97.847590,0.009450
563.594400,97.920350,0.009127
564.076500,98.071070,0.008459
564.558700,98.215510,0.007820
565.040800,98.285770,0.007509
565.522900,98.290280,0.007489
566.005000,98.255980,0.007641
566.487100,98.228740,0.007761
566.969200,98.250270,0.007666
567.451400,98.333350,0.007299
567.933500,98.445830,0.006803
568.415600,98.485210,0.006629
568.897700,98.393880,0.007032
569.379800,98.258260,0.007631
569.861900,98.041930,0.008588
570.344100,97.826280,0.009544
570.826200,97.684570,0.010174
571.308300,97.613190,0.010491
571.790400,97.678960,0.010199
572.272500,97.843110,0.009470
572.754600,97.950580,0.008993
573.236800,98.085360,0.008396
573.718900,98.124900,0.008221
574.201000,98.055460,0.008528
574.683100,97.901030,0.009213
575.165200,97.704220,0.010087
575.647300,97.509220,0.010954
576.129500,97.342500,0.011698
576.611600,97.212520,0.012278
577.093700,97.113970,0.012718
577.575800,97.039760,0.013050
578.057900,96.987820,0.013283
578.540000,96.964860,0.013386
579.022200,96.979760,0.013319
579.504300,97.032170,0.013084
579.986400,97.105530,0.012756
580.468500,97.171430,0.012461
580.950600,97.201970,0.012325
581.432700,97.181590,0.012416
581.914900,97.107090,0.012749
582.397000,96.987660,0.013284
582.879100,96.837560,0.013956
583.361200,96.672680,0.014696
583.843300,96.506010,0.015446
584.325400,96.348270,0.016156
584.807600,96.210040,0.016780
585.289700,96.103200,0.017262
585.771800,96.040860,0.017544
586.253900,96.035510,0.017568
586.736000,96.094220,0.017303
587.218100,96.102770,0.017264
587.700300,96.132640,0.017129
588.182400,96.193300,0.016855
588.664500,96.293660,0.016402
589.146600,96.436220,0.015760
589.628700,96.612460,0.014967
590.110800,96.802630,0.014113
590.593000,96.978690,0.013324
591.075100,97.112890,0.012723
591.557200,97.187870,0.012388
592.039300,97.203250,0.012319
592.521400,97.175140,0.012445
593.003500,97.127530,0.012658
593.485700,97.083760,0.012853
593.967800,97.058570,0.012966
594.449900,97.055880,0.012978
594.932000,97.069230,0.012918
595.414100,97.086560,0.012841
595.896200,97.095020,0.012803
596.378400,97.085210,0.012847
596.860500,97.052630,0.012993
597.342600,96.996810,0.013243
597.824700,96.919580,0.013588
598.306800,96.824070,0.014017
598.788900,96.714340,0.014509
599.271100,96.595710,0.015042
599.753200,96.475010,0.015585
600.235300,96.359950,0.016103
600.717400,96.258730,0.016560
601.199500,96.179070,0.016919
601.681600,96.127890,0.017151
602.163800,96.110440,0.017229
602.645900,96.130080,0.017141
603.128000,96.187970,0.016879
603.610100,96.282870,0.016451
604.092200,96.410680,0.015875
604.574300,96.564160,0.015184
605.056500,96.731440,0.014432
605.538600,96.895820,0.013695
606.020700,97.037250,0.013062
606.502800,97.136000,0.012620
606.984900,97.178770,0.012429
607.467000,97.163040,0.012499
607.949200,97.098980,0.012785
608.431300,97.006580,0.013199
608.913400,96.910790,0.013628
609.395500,96.835430,0.013966
609.877600,96.797710,0.014135
610.359700,96.803540,0.014109
610.841900,96.847080,0.013913
611.324000,96.911710,0.013624
611.806100,96.975380,0.013339
612.288200,97.015930,0.013157
612.770300,97.015640,0.013158
613.252400,96.964500,0.013387
613.734600,96.862470,0.013844
614.216700,96.719870,0.014484
614.698800,96.555660,0.015222
615.180900,96.393180,0.015954
615.663000,96.255360,0.016575
616.145100,96.159450,0.017008
616.627300,96.114190,0.017212
617.109400,96.117410,0.017198
617.591500,96.156390,0.017022
618.073600,96.210560,0.016777
618.555700,96.257050,0.016567
619.037800,96.277580,0.016475
619.520000,96.262930,0.016541
620.002100,96.215250,0.016756
620.484200,96.146350,0.017067
620.966300,96.074580,0.017392
621.448400,96.019790,0.017639
621.930500,95.997820,0.017739
622.412700,96.016330,0.017655
622.894800,96.073060,0.017398
623.376900,96.157280,0.017018
623.859000,96.252680,0.016587
624.341100,96.342180,0.016184
624.823200,96.411120,0.015873
625.305400,96.450740,0.015694
625.787500,96.459750,0.015654
626.269600,96.443890,0.015725
626.751700,96.413020,0.015864
627.233800,96.377570,0.016024
627.715900,96.345270,0.016170
628.198100,96.319220,0.016287
628.680200,96.298110,0.016382
629.162300,96.277600,0.016475
629.644400,96.252940,0.016586
630.126500,96.221600,0.016727
630.608600,96.184800,0.016894
631.090800,96.147390,0.017063
631.572900,96.116660,0.017201
632.055000,96.100040,0.017276
632.537100,96.102910,0.017263
633.019200,96.126900,0.017155
633.501300,96.169390,0.016963
633.983500,96.224480,0.016714
634.465600,96.284620,0.016443
634.947700,96.342740,0.016181
635.429800,96.393300,0.015953
635.911900,96.433050,0.015774
636.394000,96.460830,0.015649
636.876200,96.476860,0.015577
637.358300,96.482520,0.015551
637.840400,96.479580,0.015565
638.322500,96.469930,0.015608
638.804600,96.455240,0.015674
639.286700,96.436710,0.015758
639.768900,96.415470,0.015853
640.251000,96.392240,0.015958
640.733100,96.367970,0.016067
641.215200,96.343670,0.016177
641.697300,96.320840,0.016280
642.179400,96.300780,0.016370
642.661600,96.284390,0.016444
643.143700,96.271830,0.016501
643.625800,96.262050,0.016545
644.107900,96.253220,0.016585
644.590000,96.243000,0.016631
645.072100,96.229420,0.016692
645.554300,96.211690,0.016772
646.036400,96.190390,0.016868
646.518500,96.167300,0.016973
647.000600,96.144800,0.017074
647.482700,96.125100,0.017163
647.964800,96.109730,0.017233
648.447000,96.099130,0.017281
648.929100,96.093150,0.017308
649.411200,96.091220,0.017316
649.893300,96.092640,0.017310
650.375400,96.096730,0.017291
650.857500,96.102280,0.017266
651.339700,96.107390,0.017243
651.821800,96.109240,0.017235
652.303900,96.104860,0.017255
652.786000,96.092300,0.017311
653.268100,96.071750,0.017404
653.750200,96.045970,0.017521
654.232400,96.019940,0.017639
654.714500,95.999210,0.017732
655.196600,95.988120,0.017783
655.678700,95.987870,0.017784
656.160800,95.996110,0.017746
656.642900,96.007740,0.017694
657.125100,96.017030,0.017652
657.607200,96.019710,0.017640
658.089300,96.014540,0.017663
658.571400,96.003310,0.017714
659.053500,95.989580,0.017776
659.535600,95.976900,0.017833
660.017800,95.967310,0.017877
660.499900,95.960720,0.017907
660.982000,95.955990,0.017928
661.464100,95.952100,0.017946
661.946200,95.949380,0.017958
662.428300,95.949340,0.017958
662.910500,95.953340,0.017940
663.392600,95.960550,0.017907
663.874700,95.966660,0.017880
664.356800,95.963900,0.017892
664.838900,95.942480,0.017989
665.321000,95.892460,0.018216
665.803200,95.806210,0.018606
666.285300,95.682210,0.019169
666.767400,95.531680,0.019853
667.249500,95.385480,0.020518
667.731600,95.291020,0.020948
668.213700,95.287770,0.020963
668.695900,95.376890,0.020557
669.178000,95.521490,0.019899
669.660100,95.676250,0.019196
670.142200,95.810490,0.018587
670.624300,95.910920,0.018132
671.106400,95.975780,0.017838
671.588600,96.008910,0.017688
672.070700,96.016820,0.017653
672.552800,96.006900,0.017698
673.034900,95.986150,0.017791
673.517000,95.960250,0.017909
673.999100,95.933030,0.018032
674.481300,95.906640,0.018151
674.963400,95.882430,0.018261
675.445500,95.861490,0.018356
675.927600,95.844990,0.018431
676.409700,95.833820,0.018481
676.891800,95.828260,0.018506
677.374000,95.827890,0.018508
677.856100,95.831890,0.018490
678.338200,95.839540,0.018455
678.820300,95.850430,0.018406
679.302400,95.864310,0.018343
679.784500,95.880440,0.018270
680.266700,95.897140,0.018194
680.748800,95.911580,0.018129
681.230900,95.920460,0.018089
681.713000,95.921390,0.018085
682.195100,95.914120,0.018117
682.677200,95.901110,0.018176
683.159400,95.887440,0.018238
683.641500,95.879490,0.018274
684.123600,95.882970,0.018259
684.605700,95.901070,0.018177
685.087800,95.933270,0.018031
685.569900,95.975590,0.017839
686.052100,96.021940,0.017630
686.534200,96.065730,0.017432
687.016300,96.101600,0.017269
687.498400,96.126460,0.017157
687.980500,96.139910,0.017096
688.462600,96.143880,0.017078
688.944800,96.141980,0.017087
689.426900,96.138370,0.017103
689.909000,96.136980,0.017110
690.391100,96.140880,0.017092
690.873200,96.151950,0.017042
691.355300,96.170680,0.016957
691.837500,96.196080,0.016843
692.319600,96.225730,0.016709
692.801700,96.256410,0.016570
693.283800,96.284620,0.016443
693.765900,96.307670,0.016339
694.248000,96.324120,0.016265
694.730200,96.334290,0.016219
695.212300,96.339980,0.016193
695.694400,96.344080,0.016175
696.176500,96.349660,0.016150
696.658600,96.359150,0.016107
697.140700,96.373820,0.016041
697.622900,96.393550,0.015952
698.105000,96.417110,0.015846
698.587100,96.442410,0.015732
699.069200,96.467140,0.015621
699.551300,96.489040,0.015522
700.033400,96.506490,0.015443
700.515600,96.518640,0.015389
700.997700,96.525650,0.015357
701.479800,96.528720,0.015343
701.961900,96.529860,0.015338
702.444000,96.531500,0.015331
702.926100,96.535850,0.015311
703.408300,96.544260,0.015274
703.890400,96.556600,0.015218
704.372500,96.571190,0.015152
704.854600,96.585240,0.015089
705.336700,96.595680,0.015042
705.818800,96.600330,0.015021
706.301000,96.598530,0.015029
706.783100,96.591640,0.015060
707.265200,96.582440,0.015102
707.747300,96.574420,0.015138
708.229400,96.570560,0.015155
708.711500,96.572500,0.015147
709.193700,96.580160,0.015112
709.675800,96.591860,0.015059
710.157900,96.604960,0.015001
710.640000,96.616410,0.014949
711.122100,96.623260,0.014918
711.604200,96.623060,0.014919
712.086400,96.614070,0.014960
712.568500,96.595500,0.015043
713.050600,96.567830,0.015168
713.532700,96.532690,0.015326
714.014800,96.493140,0.015504
714.496900,96.452880,0.015685
714.979100,96.415410,0.015854
715.461200,96.382710,0.016001
715.943300,96.354480,0.016128
716.425400,96.328130,0.016247
716.907500,96.299900,0.016374
717.389600,96.266830,0.016523
717.871800,96.228880,0.016695
718.353900,96.190050,0.016870
718.836000,96.158440,0.017013
719.318100,96.144280,0.017077
719.800200,96.156820,0.017020
720.282300,96.201160,0.016820
720.764500,96.276250,0.016481
721.246600,96.374910,0.016036
721.728700,96.485890,0.015536
722.210800,96.596920,0.015037
722.692900,96.698080,0.014582
723.175000,96.783760,0.014198
723.657200,96.853240,0.013886
724.139300,96.909390,0.013634
724.621400,96.956570,0.013423
725.103500,96.998610,0.013234
725.585600,97.037510,0.013060
726.067700,97.073340,0.012900
726.549900,97.105230,0.012757
727.032000,97.132480,0.012636
727.514100,97.155530,0.012532
727.996200,97.175920,0.012441
728.478300,97.195640,0.012353
728.960400,97.216200,0.012261
729.442600,97.237880,0.012165
729.924700,97.259810,0.012067
730.406800,97.280590,0.011974
730.888900,97.299220,0.011891
731.371000,97.315940,0.011816
731.853100,97.332380,0.011743
732.335300,97.350900,0.011660
732.817400,97.373650,0.011559
733.299500,97.401550,0.011434
733.781600,97.433710,0.011291
734.263700,97.467660,0.011139
734.745800,97.500270,0.010994
735.228000,97.528720,0.010867
735.710100,97.551540,0.010766
736.192200,97.568910,0.010689
736.674300,97.582590,0.010628
737.156400,97.595130,0.010572
737.638500,97.609100,0.010510
738.120700,97.626280,0.010433
738.602800,97.647350,0.010340
739.084900,97.671840,0.010231
739.567000,97.698430,0.010112
740.049100,97.725400,0.009993
740.531300,97.751150,0.009878
741.013400,97.774630,0.009774
741.495500,97.795440,0.009681
741.977600,97.813920,0.009599
742.459700,97.831010,0.009523
742.941800,97.847880,0.009449
743.424000,97.865670,0.009370
743.906100,97.885200,0.009283
744.388200,97.907000,0.009186
744.870300,97.931060,0.009080
745.352400,97.957310,0.008963
745.834500,97.985440,0.008838
746.316700,98.015060,0.008707
746.798800,98.045560,0.008572
747.280900,98.076160,0.008437
747.763000,98.105840,0.008305
748.245100,98.133540,0.008183
748.727200,98.158390,0.008073
749.209400,98.179960,0.007977
749.691500,98.198460,0.007895
750.173600,98.214490,0.007824
750.655700,98.228700,0.007762
751.137800,98.241390,0.007706
751.619900,98.252200,0.007658
752.102100,98.260340,0.007622
752.584200,98.264890,0.007602
753.066300,98.265460,0.007599
753.548400,98.262590,0.007612
754.030500,98.257720,0.007633
754.512600,98.252750,0.007655
754.994800,98.249310,0.007670
755.476900,98.248340,0.007675
755.959000,98.249660,0.007669
756.441100,98.252450,0.007657
756.923200,98.255770,0.007642
757.405300,98.259180,0.007627
757.887500,98.262980,0.007610
758.369600,98.268040,0.007588
758.851700,98.275310,0.007556
759.333800,98.285250,0.007512
759.815900,98.297630,0.007457
760.298000,98.311720,0.007395
760.780200,98.326740,0.007328
761.262300,98.342480,0.007259
761.744400,98.359420,0.007184
762.226500,98.378530,0.007100
762.708600,98.400420,0.007003
763.190700,98.424810,0.006895
763.672900,98.450070,0.006784
764.155000,98.473470,0.006681
764.637100,98.492160,0.006598
765.119200,98.504100,0.006546
765.601300,98.509080,0.006524
766.083400,98.508700,0.006525
766.565600,98.506090,0.006537
767.047700,98.504750,0.006543
767.529800,98.507650,0.006530
768.011900,98.516410,0.006491
768.494000,98.531110,0.006427
768.976100,98.550580,0.006341
769.458300,98.572690,0.006243
769.940400,98.594960,0.006145
770.422500,98.614780,0.006058
770.904600,98.629710,0.005992
771.386700,98.637870,0.005956
771.868800,98.638280,0.005955
772.351000,98.631350,0.005985
772.833100,98.619120,0.006039
773.315200,98.605060,0.006101
773.797300,98.593150,0.006153
774.279400,98.586830,0.006181
774.761500,98.588110,0.006175
775.243700,98.596940,0.006137
775.725800,98.611560,0.006072
776.207900,98.629310,0.005994
776.690000,98.647730,0.005913
777.172100,98.665350,0.005835
777.654200,98.681850,0.005763
778.136400,98.697490,0.005694
778.618500,98.712420,0.005628
779.100600,98.725930,0.005569
779.582700,98.736410,0.005523
780.064800,98.741910,0.005498
780.546900,98.741040,0.005502
781.029100,98.733700,0.005535
781.511200,98.721330,0.005589
781.993300,98.706310,0.005655
782.475400,98.691200,0.005722
782.957500,98.677610,0.005781
783.439600,98.666140,0.005832
783.921800,98.656300,0.005875
784.403900,98.647430,0.005914
784.886000,98.639260,0.005950
785.368100,98.632290,0.005981
785.850200,98.627520,0.006002
786.332300,98.625820,0.006009
786.814500,98.627260,0.006003
787.296600,98.630820,0.005987
787.778700,98.634610,0.005971
788.260800,98.636700,0.005961
788.742900,98.635720,0.005966
789.225000,98.631450,0.005985
789.707200,98.624510,0.006015
790.189300,98.615880,0.006053
790.671400,98.606120,0.006096
791.153500,98.594990,0.006145
791.635600,98.581860,0.006203
792.117700,98.566150,0.006272
792.599900,98.548130,0.006352
793.082000,98.529240,0.006435
793.564100,98.511730,0.006512
794.046200,98.497790,0.006574
794.528300,98.488520,0.006614
795.010400,98.483440,0.006637
795.492600,98.480370,0.006650
795.974700,98.476310,0.006668
796.456800,98.468490,0.006703
796.938900,98.455270,0.006761
797.421000,98.436510,0.006844
797.903100,98.413210,0.006947
798.385300,98.386670,0.007064
798.867400,98.357800,0.007191
799.349500,98.326560,0.007329
799.831600,98.292120,0.007481
800.313700,98.253200,0.007653
800.795800,98.208540,0.007851
801.278000,98.157100,0.008078
801.760100,98.097920,0.008340
802.242200,98.029940,0.008641
802.724300,97.951850,0.008987
803.206400,97.862480,0.009384
803.688500,97.761350,0.009833
804.170700,97.649580,0.010330
804.652800,97.530300,0.010860
805.134900,97.408660,0.011402
805.617000,97.291190,0.011926
806.099100,97.184770,0.012402
806.581200,97.095530,0.012801
807.063400,97.027820,0.013104
807.545500,96.983860,0.013301
808.027600,96.963870,0.013390
808.509700,96.966710,0.013377
808.991800,96.990760,0.013270
809.473900,97.034520,0.013074
809.956100,97.096740,0.012795
810.438200,97.176060,0.012441
810.920300,97.270360,0.012019
811.402400,97.376530,0.011546
811.884500,97.490470,0.011038
812.366600,97.607600,0.010516
812.848800,97.723550,0.010001
813.330900,97.834820,0.009507
813.813000,97.939150,0.009044
814.295100,98.035290,0.008618
814.777200,98.122930,0.008229
815.259300,98.202130,0.007879
815.741500,98.273100,0.007565
816.223600,98.335810,0.007288
816.705700,98.389970,0.007049
817.187800,98.435120,0.006850
817.669900,98.470920,0.006692
818.152000,98.497620,0.006574
818.634200,98.516280,0.006492
819.116300,98.528930,0.006436
819.598400,98.538170,0.006396
820.080500,98.546440,0.006359
820.562600,98.555340,0.006320
821.044700,98.564930,0.006278
821.526900,98.573970,0.006238
822.009000,98.580290,0.006210
822.491100,98.581980,0.006202
822.973200,98.578090,0.006220
823.455300,98.569230,0.006259
823.937400,98.557060,0.006312
824.419600,98.543540,0.006372
824.901700,98.529850,0.006432
825.383800,98.515730,0.006494
825.865900,98.499500,0.006566
826.348000,98.478790,0.006657
826.830100,98.451750,0.006777
827.312300,98.417830,0.006926
827.794400,98.378210,0.007101
828.276500,98.335490,0.007290
828.758600,98.292690,0.007479
829.240700,98.252530,0.007656
829.722800,98.216840,0.007814
830.205000,98.186330,0.007949
830.687100,98.161090,0.008061
831.169200,98.140660,0.008151
831.651300,98.124150,0.008224
832.133400,98.110080,0.008286
832.615500,98.096010,0.008349
833.097700,98.078360,0.008427
833.579800,98.052770,0.008540
834.061900,98.014660,0.008709
834.544000,97.959910,0.008952
835.026100,97.884960,0.009284
835.508200,97.786020,0.009723
835.990400,97.657920,0.010293
836.472500,97.492830,0.011027
836.954600,97.280530,0.011974
837.436700,97.010670,0.013180
837.918800,96.676910,0.014677
838.400900,96.282260,0.016454
838.883100,95.843090,0.018439
839.365200,95.390630,0.020494
839.847300,94.967900,0.022423
840.329400,94.623320,0.024002
840.811500,94.401630,0.025021
841.293600,94.334340,0.025330
841.775800,94.432360,0.024879
842.257900,94.683060,0.023728
842.740000,95.052930,0.022034
843.222100,95.495700,0.020016
843.704200,95.962620,0.017898
844.186300,96.411960,0.015869
844.668500,96.814770,0.014058
845.150600,97.156490,0.012528
845.632700,97.434700,0.011286
846.114800,97.655200,0.010305
846.596900,97.827680,0.009538
847.079000,97.962520,0.008940
847.561200,98.068850,0.008469
848.043300,98.154090,0.008092
848.525400,98.224280,0.007781
849.007500,98.284260,0.007516
849.489600,98.337690,0.007280
849.971700,98.386990,0.007062
850.453900,98.432980,0.006859
850.936000,98.475140,0.006673
851.418100,98.512230,0.006510
851.900200,98.543080,0.006374
852.382300,98.567390,0.006267
852.864400,98.586180,0.006184
853.346600,98.601510,0.006116
853.828700,98.616070,0.006052
854.310800,98.632330,0.005981
854.792900,98.651870,0.005895
855.275000,98.675030,0.005793
855.757100,98.701110,0.005678
856.239300,98.728560,0.005557
856.721400,98.755610,0.005438
857.203500,98.780500,0.005329
857.685600,98.802000,0.005234
858.167700,98.819340,0.005158
858.649800,98.832410,0.005101
859.132000,98.841630,0.005060
859.614100,98.848010,0.005032
860.096200,98.852870,0.005011
860.578300,98.857690,0.004990
861.060400,98.863850,0.004962
861.542500,98.872340,0.004925
862.024700,98.883550,0.004876
862.506800,98.897290,0.004816
862.988900,98.912760,0.004748
863.471000,98.928970,0.004677
863.953100,98.944870,0.004607
864.435200,98.959650,0.004542
864.917400,98.972800,0.004484
865.399500,98.984140,0.004434
865.881600,98.993640,0.004393
866.363700,99.001320,0.004359
866.845800,99.007090,0.004334
867.327900,99.010780,0.004318
867.810100,99.012220,0.004311
868.292200,99.011350,0.004315
868.774300,99.008400,0.004328
869.256400,99.003910,0.004348
869.738500,98.998750,0.004370
870.220600,98.993900,0.004392
