wavenumber,transmittance,absorbance
550.095200,98.442320,0.006818
550.577300,98.407260,0.006973
551.059400,98.389180,0.007053
551.541500,98.393760,0.007032
552.023600,98.422310,0.006906
552.505700,98.530870,0.006428
552.987900,98.701260,0.005677
553.470000,98.888570,0.004854
553.952100,99.118970,0.003843
554.434200,99.348710,0.002838
554.916300,99.552800,0.001947
555.398400,99.703380,0.001290
555.880600,99.819420,0.000785
556.362700,99.880080,0.000521
556.844800,99.891760,0.000470
557.326900,99.878310,0.000529
557.809000,99.874740,0.000544
558.291100,99.888880,0.000483
558.773300,99.976880,0.000100
559.255400,100.025000,-0.000109
559.737500,100.086000,-0.000373
560.219600,100.135200,-0.000587
560.701700,100.156200,-0.000678
561.183800,100.139900,-0.000607
561.666000,100.138200,-0.000600
562.148100,100.103600,-0.000450
562.630200,100.070200,-0.000305
563.112300,100.058100,-0.000252
563.594400,100.148200,-0.000643
564.076500,100.245900,-0.001067
564.558700,100.362900,-0.001573
565.040800,100.498600,-0.002160
565.522900,100.610200,-0.002642
566.005000,100.685300,-0.002966
566.487100,100.719400,-0.003113
566.969200,100.717900,-0.003107
567.451400,100.693100,-0.003000
567.933500,100.662200,-0.002866
568.415600,100.677800,-0.002934
568.897700,100.718100,-0.003108
569.379800,100.740300,-0.003203
569.861900,100.767900,-0.003322
570.344100,100.769700,-0.003330
570.826200,100.726500,-0.003144
571.308300,100.656100,-0.002840
571.790400,100.524300,-0.002271
572.272500,100.339500,-0.001472
572.754600,100.179900,-0.000781
573.236800,99.991390,0.000037
573.718900,99.847110,0.000665
574.201000,99.755450,0.001063
574.683100,99.712970,0.001248
575.165200,99.702620,0.001293
575.647300,99.703670,0.001289
576.129500,99.692050,0.001339
576.611600,99.656010,0.001497
577.093700,99.597790,0.001750
577.575800,99.529950,0.002046
578.057900,99.464530,0.002332
578.540000,99.410790,0.002566
579.022200,99.372120,0.002735
579.504300,99.344670,0.002855
579.986400,99.315900,0.002981
580.468500,99.271950,0.003173
580.950600,99.205230,0.003465
581.432700,99.123350,0.003824
581.914900,99.042510,0.004178
582.397000,98.986230,0.004425
582.879100,98.973400,0.004482
583.361200,99.014250,0.004302
583.843300,99.103040,0.003913
584.325400,99.222910,0.003388
584.807600,99.352320,0.002822
585.289700,99.473430,0.002293
585.771800,99.576810,0.001842
586.253900,99.663080,0.001466
586.736000,99.740130,0.001130
587.218100,99.623400,0.001639
587.700300,99.494680,0.002200
588.182400,99.382880,0.002688
588.664500,99.310650,0.003004
589.146600,99.289530,0.003097
589.628700,99.316550,0.002978
590.110800,99.374610,0.002725
590.593000,99.434780,0.002462
591.075100,99.465160,0.002329
591.557200,99.441090,0.002434
592.039300,99.356640,0.002803
592.521400,99.226660,0.003372
593.003500,99.081310,0.004008
593.485700,98.955030,0.004562
593.967800,98.875980,0.004909
594.449900,98.857120,0.004992
594.932000,98.892960,0.004835
595.414100,98.962970,0.004527
595.896200,99.040560,0.004187
596.378400,99.103430,0.003911
596.860500,99.141720,0.003744
597.342600,99.157780,0.003673
597.824700,99.162900,0.003651
598.306800,99.169910,0.003620
598.788900,99.187160,0.003545
599.271100,99.215050,0.003422
599.753200,99.248280,0.003277
600.235300,99.280010,0.003138
600.717400,99.307460,0.003018
601.199500,99.333900,0.002903
601.681600,99.368160,0.002753
602.163800,99.420060,0.002526
602.645900,99.495920,0.002195
603.128000,99.594590,0.001764
603.610100,99.707210,0.001273
604.092200,99.819710,0.000784
604.574300,99.917240,0.000360
605.056500,99.987530,0.000054
605.538600,100.023600,-0.000102
606.020700,100.023700,-0.000103
606.502800,99.992050,0.000035
606.984900,99.935810,0.000279
607.467000,99.864630,0.000588
607.949200,99.788480,0.000920
608.431300,99.716500,0.001233
608.913400,99.655870,0.001497
609.395500,99.610920,0.001693
609.877600,99.581090,0.001823
610.359700,99.559920,0.001915
610.841900,99.535550,0.002022
611.324000,99.493440,0.002206
611.806100,99.420550,0.002524
612.288200,99.310650,0.003004
612.770300,99.166500,0.003635
613.252400,99.001050,0.004360
613.734600,98.834790,0.005090
614.216700,98.690390,0.005725
614.698800,98.586270,0.006184
615.180900,98.532570,0.006420
615.663000,98.529930,0.006432
616.145100,98.571960,0.006247
616.627300,98.648220,0.005911
617.109400,98.747380,0.005474
617.591500,98.857600,0.004990
618.073600,98.967730,0.004506
618.555700,99.067100,0.004071
619.037800,99.147210,0.003720
619.520000,99.202710,0.003476
620.002100,99.232750,0.003345
620.484200,99.241040,0.003309
620.966300,99.235660,0.003332
621.448400,99.226610,0.003372
621.930500,99.223370,0.003386
622.412700,99.231670,0.003350
622.894800,99.252030,0.003261
623.376900,99.279730,0.003139
623.859000,99.307020,0.003020
624.341100,99.325630,0.002939
624.823200,99.329150,0.002923
625.305400,99.314450,0.002988
625.787500,99.282040,0.003129
626.269600,99.234620,0.003337
626.751700,99.175820,0.003594
627.233800,99.108620,0.003889
627.715900,99.035420,0.004209
628.198100,98.958150,0.004548
628.680200,98.879870,0.004892
629.162300,98.804910,0.005221
629.644400,98.738910,0.005512
630.126500,98.687540,0.005738
630.608600,98.655450,0.005879
631.090800,98.644740,0.005926
631.572900,98.654650,0.005882
632.055000,98.681500,0.005764
632.537100,98.719440,0.005597
633.019200,98.761760,0.005411
633.501300,98.802470,0.005232
633.983500,98.837920,0.005076
634.465600,98.867810,0.004945
634.947700,98.895060,0.004825
635.429800,98.924480,0.004696
635.911900,98.960280,0.004539
636.394000,99.004200,0.004346
636.876200,99.053320,0.004131
637.358300,99.100590,0.003924
637.840400,99.136250,0.003768
638.322500,99.151080,0.003703
638.804600,99.139710,0.003752
639.286700,99.102600,0.003915
639.768900,99.046790,0.004160
640.251000,98.984280,0.004434
640.733100,98.928660,0.004678
641.215200,98.891140,0.004843
641.697300,98.877130,0.004904
642.179400,98.884990,0.004870
642.661600,98.906990,0.004773
643.143700,98.932260,0.004662
643.625800,98.950100,0.004584
644.107900,98.953150,0.004570
644.590000,98.939180,0.004632
645.072100,98.911190,0.004755
645.554300,98.875820,0.004910
646.036400,98.841080,0.005063
646.518500,98.813860,0.005182
647.000600,98.798680,0.005249
647.482700,98.796880,0.005257
647.964800,98.807010,0.005212
648.447000,98.825340,0.005132
648.929100,98.847150,0.005036
649.411200,98.867420,0.004947
649.893300,98.881680,0.004884
650.375400,98.886450,0.004863
650.857500,98.879410,0.004894
651.339700,98.859720,0.004981
651.821800,98.828240,0.005119
652.303900,98.788040,0.005296
652.786000,98.744050,0.005489
653.268100,98.702440,0.005672
653.750200,98.669560,0.005817
654.232400,98.650430,0.005901
654.714500,98.647430,0.005914
655.196600,98.659340,0.005862
655.678700,98.681350,0.005765
656.160800,98.706070,0.005656
656.642900,98.725790,0.005569
657.125100,98.734950,0.005529
657.607200,98.731940,0.005542
658.089300,98.719570,0.005597
658.571400,98.704090,0.005665
659.053500,98.692660,0.005715
659.535600,98.690650,0.005724
660.017800,98.699530,0.005685
660.499900,98.716100,0.005612
660.982000,98.734130,0.005533
661.464100,98.746820,0.005477
661.946200,98.749340,0.005466
662.428300,98.740540,0.005505
662.910500,98.722760,0.005583
663.392600,98.700220,0.005682
663.874700,98.676450,0.005786
664.356800,98.652360,0.005893
664.838900,98.625530,0.006011
665.321000,98.591160,0.006162
665.803200,98.543990,0.006370
666.285300,98.481310,0.006646
666.767400,98.406970,0.006974
667.249500,98.335770,0.007288
667.731600,98.291710,0.007483
668.213700,98.295180,0.007468
668.695900,98.346600,0.007241
669.178000,98.426320,0.006889
669.660100,98.510410,0.006518
670.142200,98.583150,0.006197
670.624300,98.638240,0.005955
671.106400,98.675790,0.005789
671.588600,98.698640,0.005689
672.070700,98.710490,0.005637
672.552800,98.714390,0.005620
673.034900,98.712370,0.005628
673.517000,98.705410,0.005659
673.999100,98.694120,0.005709
674.481300,98.679560,0.005773
674.963400,98.663670,0.005843
675.445500,98.649060,0.005907
675.927600,98.638140,0.005955
676.409700,98.631900,0.005983
676.891800,98.629530,0.005993
677.374000,98.628600,0.005997
677.856100,98.626290,0.006007
678.338200,98.620670,0.006032
678.820300,98.611540,0.006072
679.302400,98.600310,0.006122
679.784500,98.588990,0.006172
680.266700,98.578960,0.006216
680.748800,98.570370,0.006254
681.230900,98.561900,0.006291
681.713000,98.552090,0.006334
682.195100,98.540510,0.006385
682.677200,98.528580,0.006438
683.159400,98.519360,0.006478
683.641500,98.516470,0.006491
684.123600,98.522280,0.006466
684.605700,98.536710,0.006402
685.087800,98.556840,0.006313
685.569900,98.577930,0.006220
686.052100,98.594970,0.006145
686.534200,98.604160,0.006105
687.016300,98.603700,0.006107
687.498400,98.593780,0.006150
687.980500,98.575890,0.006229
688.462600,98.552100,0.006334
688.944800,98.524450,0.006456
689.426900,98.494900,0.006586
689.909000,98.465350,0.006717
690.391100,98.437860,0.006838
690.873200,98.414150,0.006942
691.355300,98.395190,0.007026
691.837500,98.380380,0.007092
692.319600,98.367570,0.007148
692.801700,98.353740,0.007209
693.283800,98.336320,0.007286
693.765900,98.314360,0.007383
694.248000,98.289090,0.007495
694.730200,98.263210,0.007609
695.212300,98.239460,0.007714
695.694400,98.218960,0.007805
696.176500,98.200220,0.007888
696.658600,98.179590,0.007979
697.140700,98.152790,0.008097
697.622900,98.116980,0.008256
698.105000,98.071990,0.008455
698.587100,98.020210,0.008684
699.069200,97.965330,0.008928
699.551300,97.909900,0.009173
700.033400,97.853970,0.009422
700.515600,97.794500,0.009686
700.997700,97.726900,0.009986
701.479800,97.647150,0.010340
701.961900,97.553790,0.010756
702.444000,97.448630,0.011224
702.926100,97.335810,0.011727
703.408300,97.219520,0.012247
703.890400,97.101760,0.012773
704.372500,96.981200,0.013312
704.854600,96.853680,0.013884
705.336700,96.714020,0.014511
705.818800,96.558170,0.015211
706.301000,96.384300,0.015994
706.783100,96.192380,0.016859
707.265200,95.982640,0.017807
707.747300,95.753850,0.018844
708.229400,95.502350,0.019986
708.711500,95.222430,0.021261
709.193700,94.907470,0.022700
709.675800,94.550770,0.024335
710.157900,94.145060,0.026202
710.640000,93.680640,0.028350
711.122100,93.143070,0.030849
711.604200,92.512600,0.033799
712.086400,91.766750,0.037315
712.568500,90.886540,0.041500
713.050600,89.865010,0.046409
713.532700,88.714940,0.052003
714.014800,87.472570,0.058128
714.496900,86.194650,0.064520
714.979100,84.948720,0.070843
715.461200,83.799640,0.076758
715.943300,82.798210,0.081979
716.425400,81.976590,0.086310
716.907500,81.351840,0.089633
717.389600,80.934350,0.091867
717.871800,80.735290,0.092937
718.353900,80.768620,0.092757
718.836000,81.046250,0.091267
719.318100,81.568770,0.088476
719.800200,82.317090,0.084510
720.282300,83.249420,0.079619
720.764500,84.305460,0.074144
721.246600,85.416180,0.068460
721.728700,86.515160,0.062908
722.210800,87.548160,0.057753
722.692900,88.478490,0.053162
723.175000,89.287770,0.049208
723.657200,89.972660,0.045889
724.139300,90.539230,0.043163
724.621400,90.996950,0.040973
725.103500,91.353680,0.039274
725.585600,91.612940,0.038043
726.067700,91.773480,0.037283
726.549900,91.831240,0.037010
727.032000,91.783090,0.037237
727.514100,91.631660,0.037954
727.996200,91.390580,0.039099
728.478300,91.088360,0.040537
728.960400,90.770070,0.042057
729.442600,90.494260,0.043379
729.924700,90.325170,0.044191
730.406800,90.320590,0.044213
730.888900,90.518810,0.043261
731.371000,90.929210,0.041297
731.853100,91.529500,0.038439
732.335300,92.270830,0.034936
732.817400,93.088230,0.031105
733.299500,93.913810,0.027271
733.781600,94.688840,0.023701
734.263700,95.372540,0.020577
734.745800,95.945430,0.017976
735.228000,96.406790,0.015892
735.710100,96.768610,0.014265
736.192200,97.048160,0.013013
736.674300,97.262640,0.012054
737.156400,97.426570,0.011323
737.638500,97.552030,0.010764
738.120700,97.649770,0.010329
738.602800,97.730040,0.009972
739.084900,97.801830,0.009653
739.567000,97.871440,0.009344
740.049100,97.940980,0.009036
740.531300,98.008460,0.008736
741.013400,98.069240,0.008467
741.495500,98.118740,0.008248
741.977600,98.155040,0.008087
742.459700,98.180050,0.007977
742.941800,98.198850,0.007894
743.424000,98.217430,0.007811
743.906100,98.240140,0.007711
744.388200,98.268220,0.007587
744.870300,98.299690,0.007448
745.352400,98.331080,0.007309
745.834500,98.359210,0.007185
746.316700,98.382960,0.007080
746.798800,98.403320,0.006990
747.280900,98.422580,0.006905
747.763000,98.442670,0.006817
748.245100,98.464090,0.006722
748.727200,98.485730,0.006627
749.209400,98.505730,0.006539
749.691500,98.522640,0.006464
750.173600,98.536380,0.006403
750.655700,98.548070,0.006352
751.137800,98.559410,0.006302
751.619900,98.571380,0.006249
752.102100,98.583730,0.006195
752.584200,98.595120,0.006145
753.066300,98.604100,0.006105
753.548400,98.610290,0.006078
754.030500,98.614980,0.006057
754.512600,98.620750,0.006032
754.994800,98.630180,0.005990
755.476900,98.644500,0.005927
755.959000,98.662650,0.005847
756.441100,98.681480,0.005764
756.923200,98.697100,0.005696
757.405300,98.706530,0.005654
757.887500,98.709130,0.005643
758.369600,98.706850,0.005653
758.851700,98.703480,0.005668
759.333800,98.702910,0.005670
759.815900,98.707730,0.005649
760.298000,98.718170,0.005603
760.780200,98.732510,0.005540
761.262300,98.747800,0.005473
761.744400,98.761190,0.005414
762.226500,98.770950,0.005371
762.708600,98.776690,0.005346
763.190700,98.779040,0.005335
763.672900,98.779200,0.005334
764.155000,98.778330,0.005338
764.637100,98.777510,0.005342
765.119200,98.777780,0.005341
765.601300,98.780300,0.005330
766.083400,98.786160,0.005304
766.565600,98.796250,0.005260
767.047700,98.810680,0.005196
767.529800,98.828820,0.005116
768.011900,98.849140,0.005027
768.494000,98.869800,0.004936
768.976100,98.889080,0.004852
769.458300,98.905850,0.004778
769.940400,98.919590,0.004718
770.422500,98.930130,0.004671
770.904600,98.937190,0.004640
771.386700,98.940390,0.004626
771.868800,98.939310,0.004631
772.351000,98.933940,0.004655
772.833100,98.925120,0.004693
773.315200,98.914730,0.004739
773.797300,98.905250,0.004781
774.279400,98.899190,0.004807
774.761500,98.898250,0.004811
775.243700,98.903060,0.004790
775.725800,98.913090,0.004746
776.207900,98.927100,0.004685
776.690000,98.943790,0.004611
777.172100,98.962250,0.004530
777.654200,98.981830,0.004445
778.136400,99.001930,0.004356
778.618500,99.021710,0.004270
779.100600,99.039790,0.004190
779.582700,99.054520,0.004126
780.064800,99.064450,0.004082
780.546900,99.068910,0.004063
781.029100,99.068210,0.004066
781.511200,99.063440,0.004087
781.993300,99.056080,0.004119
782.475400,99.047360,0.004157
782.957500,99.038090,0.004198
783.439600,99.028930,0.004238
783.921800,99.020610,0.004274
784.403900,99.014510,0.004301
784.886000,99.012410,0.004310
785.368100,99.016170,0.004294
785.850200,99.026780,0.004247
786.332300,99.043810,0.004173
786.814500,99.065360,0.004078
787.296600,99.088390,0.003977
787.778700,99.109770,0.003884
788.260800,99.127310,0.003807
788.742900,99.140150,0.003750
789.225000,99.148820,0.003712
789.707200,99.154510,0.003688
790.189300,99.158130,0.003672
790.671400,99.159930,0.003664
791.153500,99.159420,0.003666
791.635600,99.156200,0.003680
792.117700,99.150440,0.003705
792.599900,99.143400,0.003736
793.082000,99.137150,0.003764
793.564100,99.133810,0.003778
794.046200,99.134650,0.003775
794.528300,99.139570,0.003753
795.010400,99.147290,0.003719
795.492600,99.156060,0.003681
795.974700,99.164430,0.003644
796.456800,99.172000,0.003611
796.938900,99.179210,0.003579
797.421000,99.186830,0.003546
797.903100,99.194990,0.003510
798.385300,99.202940,0.003475
798.867400,99.209110,0.003448
799.349500,99.212030,0.003436
799.831600,99.211110,0.003440
800.313700,99.207310,0.003456
800.795800,99.202610,0.003477
801.278000,99.199140,0.003492
801.760100,99.197840,0.003498
802.242200,99.197850,0.003498
802.724300,99.196620,0.003503
803.206400,99.191200,0.003527
803.688500,99.179660,0.003577
804.170700,99.162450,0.003653
804.652800,99.142490,0.003740
805.134900,99.124260,0.003820
805.617000,99.112170,0.003873
806.099100,99.108980,0.003887
806.581200,99.114910,0.003861
807.063400,99.127820,0.003804
807.545500,99.144210,0.003733
808.027600,99.160780,0.003660
808.509700,99.175300,0.003596
808.991800,99.187200,0.003544
809.473900,99.196850,0.003502
809.956100,99.204990,0.003466
810.438200,99.211720,0.003437
810.920300,99.216440,0.003416
811.402400,99.218040,0.003409
811.884500,99.215680,0.003420
812.366600,99.209330,0.003447
812.848800,99.200040,0.003488
813.330900,99.189620,0.003534
813.813000,99.180360,0.003574
814.295100,99.174030,0.003602
814.777200,99.171790,0.003612
815.259300,99.173740,0.003603
815.741500,99.179170,0.003580
816.223600,99.186750,0.003546
816.705700,99.194920,0.003511
817.187800,99.202170,0.003479
817.669900,99.207270,0.003457
818.152000,99.209580,0.003446
818.634200,99.209200,0.003448
819.116300,99.206960,0.003458
819.598400,99.204270,0.003470
820.080500,99.202530,0.003477
820.562600,99.202820,0.003476
821.044700,99.205440,0.003465
821.526900,99.209870,0.003445
822.009000,99.215050,0.003422
822.491100,99.219960,0.003401
822.973200,99.223950,0.003383
823.455300,99.227040,0.003370
823.937400,99.229770,0.003358
824.419600,99.232820,0.003345
824.901700,99.236590,0.003328
825.383800,99.240980,0.003309
825.865900,99.245530,0.003289
826.348000,99.249580,0.003271
826.830100,99.252840,0.003257
827.312300,99.255380,0.003246
827.794400,99.257670,0.003236
828.276500,99.260330,0.003224
828.758600,99.263740,0.003209
829.240700,99.268040,0.003191
829.722800,99.273120,0.003168
830.205000,99.278850,0.003143
830.687100,99.285180,0.003116
831.169200,99.292120,0.003085
831.651300,99.299500,0.003053
832.133400,99.306640,0.003022
832.615500,99.312470,0.002996
833.097700,99.315730,0.002982
833.579800,99.315660,0.002982
834.061900,99.312520,0.002996
834.544000,99.307910,0.003016
835.026100,99.304400,0.003032
835.508200,99.304330,0.003032
835.990400,99.309070,0.003011
836.472500,99.317890,0.002973
836.954600,99.328190,0.002927
837.436700,99.336410,0.002892
837.918800,99.339260,0.002879
838.400900,99.335260,0.002897
838.883100,99.325330,0.002940
839.365200,99.312390,0.002997
839.847300,99.300190,0.003050
840.329400,99.291680,0.003087
840.811500,99.288180,0.003102
841.293600,99.288980,0.003099
841.775800,99.292080,0.003085
842.257900,99.295420,0.003071
842.740000,99.297740,0.003061
843.222100,99.299300,0.003054
843.704200,99.301230,0.003045
844.186300,99.304760,0.003030
844.668500,99.310300,0.003006
845.150600,99.316990,0.002976
845.632700,99.322940,0.002950
846.114800,99.326070,0.002937
846.596900,99.325120,0.002941
847.079000,99.320190,0.002962
847.561200,99.312840,0.002995
848.043300,99.305380,0.003027
848.525400,99.300130,0.003050
849.007500,99.298590,0.003057
849.489600,99.301220,0.003045
849.971700,99.307400,0.003018
850.453900,99.315900,0.002981
850.936000,99.325240,0.002940
851.418100,99.334090,0.002902
851.900200,99.341380,0.002870
852.382300,99.346330,0.002848
852.864400,99.348540,0.002839
853.346600,99.348120,0.002840
853.828700,99.345700,0.002851
854.310800,99.342510,0.002865
854.792900,99.339870,0.002876
855.275000,99.339000,0.002880
855.757100,99.340450,0.002874
856.239300,99.343910,0.002859
856.721400,99.348370,0.002839
857.203500,99.352460,0.002821
857.685600,99.355020,0.002810
858.167700,99.355490,0.002808
858.649800,99.354000,0.002815
859.132000,99.351020,0.002828
859.614100,99.347220,0.002844
860.096200,99.343050,0.002863
860.578300,99.338670,0.002882
861.060400,99.334130,0.002902
861.542500,99.329630,0.002921
862.024700,99.325600,0.002939
862.506800,99.322700,0.002951
862.988900,99.321400,0.002957
863.471000,99.321960,0.002955
863.953100,99.324140,0.002945
864.435200,99.327550,0.002930
864.917400,99.331890,0.002911
865.399500,99.337230,0.002888
865.881600,99.343960,0.002859
866.363700,99.352580,0.002821
866.845800,99.363110,0.002775
867.327900,99.374670,0.002724
867.810100,99.385500,0.002677
868.292200,99.393290,0.002643
868.774300,99.396150,0.002630
869.256400,99.393170,0.002643
