wavenumber,transmittance,absorbance
550.095200,50.364440,0.297876
550.577300,50.608790,0.295774
551.059400,50.826390,0.293911
551.541500,50.987940,0.292533
552.023600,51.055070,0.291961
552.505700,51.038500,0.292102
552.987900,50.990070,0.292514
553.470000,50.895580,0.293320
553.952100,50.830730,0.293874
554.434200,50.799580,0.294140
554.916300,50.820890,0.293958
555.398400,50.899720,0.293285
555.880600,51.064950,0.291877
556.362700,51.189720,0.290817
556.844800,51.279460,0.290057
557.326900,51.316680,0.289741
557.809000,51.309230,0.289805
558.291100,51.241570,0.290378
558.773300,51.133660,0.291293
559.255400,51.049980,0.292004
559.737500,50.951180,0.292846
560.219600,50.880240,0.293451
560.701700,50.836840,0.293821
561.183800,50.792590,0.294200
561.666000,50.741920,0.294633
562.148100,50.674780,0.295208
562.630200,50.596400,0.295880
563.112300,50.540000,0.296365
563.594400,50.580570,0.296016
564.076500,50.627070,0.295617
564.558700,50.711660,0.294892
565.040800,50.839470,0.293799
565.522900,50.948830,0.292866
566.005000,51.016440,0.292290
566.487100,51.037610,0.292110
566.969200,51.015540,0.292298
567.451400,50.951170,0.292846
567.933500,50.842320,0.293775
568.415600,50.747000,0.294590
568.897700,50.552840,0.296254
569.379800,50.320770,0.298253
569.861900,50.063070,0.300483
570.344100,49.809770,0.302685
570.826200,49.604810,0.304476
571.308300,49.492260,0.305463
571.790400,49.491450,0.305470
572.272500,49.587760,0.304626
572.754600,49.731950,0.303365
573.236800,49.849530,0.302339
573.718900,49.897500,0.301921
574.201000,49.869760,0.302163
574.683100,49.797120,0.302796
575.165200,49.725840,0.303418
575.647300,49.698870,0.303653
576.129500,49.734510,0.303342
576.611600,49.812080,0.302665
577.093700,49.881990,0.302056
577.575800,49.898820,0.301910
578.057900,49.848900,0.302344
578.540000,49.751050,0.303198
579.022200,49.645750,0.304118
579.504300,49.573370,0.304752
579.986400,49.554900,0.304913
580.468500,49.577220,0.304718
580.950600,49.603540,0.304487
581.432700,49.596880,0.304546
581.914900,49.539290,0.305050
582.397000,49.438300,0.305936
582.879100,49.322530,0.306955
583.361200,49.229770,0.307772
583.843300,49.189270,0.308130
584.325400,49.204700,0.307993
584.807600,49.256610,0.307535
585.289700,49.319990,0.306977
585.771800,49.381640,0.306434
586.253900,49.440980,0.305913
586.736000,49.504630,0.305354
587.218100,49.409510,0.306189
587.700300,49.399720,0.306276
588.182400,49.468520,0.305671
588.664500,49.555590,0.304907
589.146600,49.591800,0.304590
589.628700,49.545230,0.304998
590.110800,49.441740,0.305906
590.593000,49.351090,0.306703
591.075100,49.344020,0.306765
591.557200,49.446110,0.305868
592.039300,49.618420,0.304357
592.521400,49.780910,0.302937
593.003500,49.860450,0.302244
593.485700,49.833240,0.302481
593.967800,49.737650,0.303315
594.449900,49.653000,0.304055
594.932000,49.654830,0.304039
595.414100,49.771740,0.303017
595.896200,49.967850,0.301309
596.378400,50.163300,0.299614
596.860500,50.277920,0.298623
597.342600,50.273480,0.298661
597.824700,50.171400,0.299544
598.306800,50.039850,0.300684
598.788900,49.955150,0.301420
599.271100,49.960110,0.301377
599.753200,50.041870,0.300666
600.235300,50.143200,0.299788
600.717400,50.199830,0.299298
601.199500,50.179160,0.299477
601.681600,50.100110,0.300161
602.163800,50.024240,0.300820
602.645900,50.022000,0.300839
603.128000,50.134010,0.299868
603.610100,50.348140,0.298017
604.092200,50.606390,0.295795
604.574300,50.836050,0.293828
605.056500,50.986310,0.292546
605.538600,51.050560,0.291999
606.020700,51.063730,0.291887
606.502800,51.076220,0.291781
606.984900,51.120660,0.291404
607.467000,51.190400,0.290811
607.949200,51.246140,0.290339
608.431300,51.243450,0.290362
608.913400,51.165020,0.291027
609.395500,51.037250,0.292113
609.877600,50.920600,0.293106
610.359700,50.877310,0.293476
610.841900,50.933960,0.292993
611.324000,51.062710,0.291896
611.806100,51.194440,0.290777
612.288200,51.256830,0.290248
612.770300,51.214920,0.290604
613.252400,51.091010,0.291656
613.734600,50.953080,0.292830
614.216700,50.875870,0.293488
614.698800,50.896870,0.293309
615.180900,50.993600,0.292484
615.663000,51.096550,0.291608
616.145100,51.129880,0.291325
616.627300,51.055010,0.291962
617.109400,50.893830,0.293335
617.591500,50.717880,0.294839
618.073600,50.608040,0.295780
618.555700,50.608600,0.295776
619.037800,50.703540,0.294962
619.520000,50.829430,0.293885
620.002100,50.913540,0.293167
620.484200,50.914100,0.293162
620.966300,50.840270,0.293792
621.448400,50.743330,0.294621
621.930500,50.685080,0.295120
622.412700,50.701950,0.294975
622.894800,50.786660,0.294250
623.376900,50.897290,0.293305
623.859000,50.985060,0.292557
624.341100,51.023750,0.292228
624.823200,51.023110,0.292233
625.305400,51.020540,0.292255
625.787500,51.056120,0.291952
626.269600,51.147190,0.291178
626.751700,51.277820,0.290070
627.233800,51.409140,0.288960
627.715900,51.502300,0.288173
628.198100,51.540350,0.287853
628.680200,51.536590,0.287884
629.162300,51.526200,0.287972
629.644400,51.545360,0.287810
630.126500,51.610610,0.287261
630.608600,51.710330,0.286423
631.090800,51.812730,0.285564
631.572900,51.885670,0.284953
632.055000,51.916040,0.284698
632.537100,51.918090,0.284681
633.019200,51.926820,0.284608
633.501300,51.978270,0.284178
633.983500,52.089630,0.283249
634.465600,52.248650,0.281925
634.947700,52.420060,0.280502
635.429800,52.563490,0.279316
635.911900,52.653680,0.278571
636.394000,52.691140,0.278262
636.876200,52.698390,0.278203
637.358300,52.704250,0.278154
637.840400,52.726280,0.277973
638.322500,52.761710,0.277681
638.804600,52.792320,0.277429
639.286700,52.798930,0.277375
639.768900,52.776380,0.277560
640.251000,52.739460,0.277864
640.733100,52.716500,0.278053
641.215200,52.733700,0.277912
641.697300,52.800120,0.277365
642.179400,52.902040,0.276528
642.661600,53.010170,0.275641
643.143700,53.094730,0.274949
643.625800,53.140340,0.274576
644.107900,53.152600,0.274475
644.590000,53.153090,0.274471
645.072100,53.165860,0.274367
645.554300,53.203670,0.274058
646.036400,53.261530,0.273586
646.518500,53.321420,0.273098
647.000600,53.364260,0.272750
647.482700,53.382440,0.272602
647.964800,53.385650,0.272575
648.447000,53.396430,0.272488
648.929100,53.437450,0.272154
649.411200,53.518440,0.271497
649.893300,53.629990,0.270592
650.375400,53.748060,0.269637
650.857500,53.845850,0.268848
651.339700,53.906820,0.268356
651.821800,53.931610,0.268157
652.303900,53.935870,0.268122
652.786000,53.940270,0.268087
653.268100,53.958820,0.267938
653.750200,53.992440,0.267667
654.232400,54.031010,0.267357
654.714500,54.061830,0.267109
655.196600,54.079250,0.266969
655.678700,54.089420,0.266888
656.160800,54.107270,0.266744
656.642900,54.147640,0.266420
657.125100,54.216080,0.265872
657.607200,54.304990,0.265160
658.089300,54.397510,0.264421
658.571400,54.476450,0.263791
659.053500,54.533460,0.263337
659.535600,54.573210,0.263021
660.017800,54.609880,0.262729
660.499900,54.658250,0.262344
660.982000,54.724840,0.261815
661.464100,54.803930,0.261188
661.946200,54.880970,0.260578
662.428300,54.940520,0.260107
662.910500,54.974610,0.259838
663.392600,54.986290,0.259746
663.874700,54.986720,0.259742
664.356800,54.987270,0.259738
664.838900,54.992710,0.259695
665.321000,54.998580,0.259649
665.803200,54.993900,0.259685
666.285300,54.968030,0.259890
666.767400,54.920890,0.260262
667.249500,54.873380,0.260638
667.731600,54.866630,0.260692
668.213700,54.937490,0.260131
668.695900,55.085610,0.258962
669.178000,55.271790,0.257496
669.660100,55.449040,0.256106
670.142200,55.588450,0.255015
670.624300,55.683670,0.254272
671.106400,55.744700,0.253796
671.588600,55.789480,0.253448
672.070700,55.836150,0.253085
672.552800,55.895900,0.252620
673.034900,55.968570,0.252056
673.517000,56.043830,0.251472
673.999100,56.107940,0.250976
674.481300,56.152270,0.250633
674.963400,56.178380,0.250431
675.445500,56.197300,0.250285
675.927600,56.223570,0.250082
676.409700,56.267480,0.249743
676.891800,56.329950,0.249261
677.374000,56.402770,0.248700
677.856100,56.474190,0.248150
678.338200,56.535870,0.247676
678.820300,56.587240,0.247281
679.302400,56.634950,0.246915
679.784500,56.687620,0.246512
680.266700,56.750100,0.246033
680.748800,56.819730,0.245501
681.230900,56.887710,0.244982
681.713000,56.944600,0.244547
682.195100,56.986530,0.244228
682.677200,57.018450,0.243985
683.159400,57.052260,0.243727
683.641500,57.101210,0.243355
684.123600,57.172860,0.242810
684.605700,57.265130,0.242110
685.087800,57.367280,0.241336
685.569900,57.465540,0.240593
686.052100,57.549770,0.239956
686.534200,57.617530,0.239445
687.016300,57.673760,0.239022
687.498400,57.726560,0.238624
687.980500,57.781850,0.238209
688.462600,57.840020,0.237772
688.944800,57.896580,0.237347
689.426900,57.946190,0.236975
689.909000,57.987290,0.236667
690.391100,58.024180,0.236391
690.873200,58.065350,0.236083
691.355300,58.118630,0.235685
691.837500,58.186340,0.235179
692.319600,58.263080,0.234607
692.801700,58.338060,0.234048
693.283800,58.400680,0.233582
693.765900,58.446340,0.233243
694.248000,58.479080,0.232999
694.730200,58.509770,0.232772
695.212300,58.550510,0.232469
695.694400,58.608390,0.232040
696.176500,58.681970,0.231495
696.658600,58.762330,0.230901
697.140700,58.838240,0.230340
697.622900,58.902420,0.229867
698.105000,58.955230,0.229478
698.587100,59.004110,0.229118
699.069200,59.059130,0.228713
699.551300,59.127150,0.228213
700.033400,59.208040,0.227619
700.515600,59.294820,0.226983
700.997700,59.377690,0.226377
701.479800,59.449430,0.225852
701.961900,59.508830,0.225419
702.444000,59.560820,0.225039
702.926100,59.613040,0.224659
703.408300,59.671280,0.224235
703.890400,59.736160,0.223763
704.372500,59.803150,0.223276
704.854600,59.865780,0.222821
705.336700,59.919760,0.222430
705.818800,59.965660,0.222097
706.301000,60.008630,0.221786
706.783100,60.055290,0.221449
707.265200,60.109690,0.221056
707.747300,60.170970,0.220613
708.229400,60.233900,0.220159
708.711500,60.292290,0.219738
709.193700,60.342810,0.219374
709.675800,60.387170,0.219055
710.157900,60.431560,0.218736
710.640000,60.482670,0.218369
711.122100,60.544200,0.217927
711.604200,60.614430,0.217424
712.086400,60.687020,0.216904
712.568500,60.754620,0.216421
713.050600,60.812930,0.216004
713.532700,60.862890,0.215647
714.014800,60.909970,0.215312
714.496900,60.960760,0.214950
714.979100,61.018930,0.214535
715.461200,61.083010,0.214080
715.943300,61.147230,0.213623
716.425400,61.205030,0.213213
716.907500,61.253100,0.212872
717.389600,61.293770,0.212584
717.871800,61.334220,0.212297
718.353900,61.383190,0.211951
718.836000,61.446660,0.211502
719.318100,61.525000,0.210948
719.800200,61.613210,0.210326
720.282300,61.703830,0.209688
720.764500,61.791080,0.209074
721.246600,61.873500,0.208495
721.728700,61.953850,0.207932
722.210800,62.036480,0.207353
722.692900,62.124000,0.206741
723.175000,62.215210,0.206103
723.657200,62.305670,0.205472
724.139300,62.390270,0.204883
724.621400,62.466300,0.204354
725.103500,62.535030,0.203877
725.585600,62.600940,0.203419
726.067700,62.668780,0.202949
726.549900,62.740640,0.202451
727.032000,62.814440,0.201941
727.514100,62.885150,0.201452
727.996200,62.948050,0.201018
728.478300,63.001960,0.200646
728.960400,63.050680,0.200310
729.442600,63.101490,0.199960
729.924700,63.161580,0.199547
730.406800,63.234100,0.199049
730.888900,63.316470,0.198483
731.371000,63.401590,0.197900
731.853100,63.481690,0.197352
732.335300,63.552410,0.196868
732.817400,63.615060,0.196440
733.299500,63.675610,0.196027
733.781600,63.741210,0.195580
734.263700,63.815950,0.195071
734.745800,63.898430,0.194510
735.228000,63.982290,0.193940
735.710100,64.059680,0.193415
736.192200,64.125330,0.192970
736.674300,64.179330,0.192605
737.156400,64.226900,0.192283
737.638500,64.275570,0.191954
738.120700,64.331340,0.191577
738.602800,64.395810,0.191142
739.084900,64.466130,0.190668
739.567000,64.537150,0.190190
740.049100,64.604860,0.189735
740.531300,64.668620,0.189306
741.013400,64.731420,0.188885
741.495500,64.797520,0.188442
741.977600,64.869800,0.187957
742.459700,64.947820,0.187435
742.941800,65.027980,0.186900
743.424000,65.105700,0.186381
743.906100,65.178050,0.185899
744.388200,65.245530,0.185449
744.870300,65.311410,0.185011
745.352400,65.379730,0.184557
745.834500,65.452500,0.184074
746.316700,65.528270,0.183571
746.798800,65.602840,0.183077
747.280900,65.671670,0.182622
747.763000,65.732540,0.182220
748.245100,65.787030,0.181860
748.727200,65.839640,0.181513
749.209400,65.895360,0.181145
749.691500,65.956830,0.180740
750.173600,66.022770,0.180306
750.655700,66.088840,0.179872
751.137800,66.150220,0.179469
751.619900,66.204450,0.179113
752.102100,66.252940,0.178795
752.584200,66.300290,0.178485
753.066300,66.351720,0.178148
753.548400,66.410390,0.177764
754.030500,66.475750,0.177337
754.512600,66.544250,0.176889
754.994800,66.611780,0.176449
755.476900,66.676290,0.176029
755.959000,66.738990,0.175620
756.441100,66.803470,0.175201
756.923200,66.873130,0.174748
757.405300,66.948630,0.174258
757.887500,67.026780,0.173752
758.369600,67.101810,0.173266
758.851700,67.168500,0.172834
759.333800,67.225120,0.172468
759.815900,67.274790,0.172148
760.298000,67.324150,0.171829
760.780200,67.380290,0.171467
761.262300,67.447190,0.171036
761.744400,67.523770,0.170543
762.226500,67.604700,0.170023
762.708600,67.683320,0.169518
763.190700,67.755110,0.169058
763.672900,67.819780,0.168644
764.155000,67.880880,0.168253
764.637100,67.943500,0.167852
765.119200,68.010980,0.167421
765.601300,68.083130,0.166960
766.083400,68.156400,0.166493
766.565600,68.226360,0.166048
767.047700,68.290370,0.165641
767.529800,68.349460,0.165265
768.011900,68.407790,0.164894
768.494000,68.470330,0.164498
768.976100,68.539890,0.164057
769.458300,68.615440,0.163578
769.940400,68.692410,0.163091
770.422500,68.765010,0.162632
770.904600,68.829350,0.162226
771.386700,68.885190,0.161874
771.868800,68.935940,0.161554
772.351000,68.986380,0.161237
772.833100,69.040280,0.160897
773.315200,69.098400,0.160532
773.797300,69.158650,0.160153
774.279400,69.217880,0.159782
774.761500,69.274250,0.159428
775.243700,69.328730,0.159087
775.725800,69.384800,0.158736
776.207900,69.446620,0.158349
776.690000,69.516630,0.157911
777.172100,69.594240,0.157427
777.654200,69.676180,0.156916
778.136400,69.758260,0.156404
778.618500,69.837790,0.155910
779.100600,69.914470,0.155433
779.582700,69.990070,0.154964
780.064800,70.066430,0.154490
780.546900,70.143620,0.154012
781.029100,70.218960,0.153546
781.511200,70.288170,0.153118
781.993300,70.347700,0.152750
782.475400,70.397140,0.152445
782.957500,70.440090,0.152180
783.439600,70.483150,0.151915
783.921800,70.533060,0.151607
784.403900,70.593800,0.151233
784.886000,70.664960,0.150796
785.368100,70.742280,0.150321
785.850200,70.820200,0.149843
786.332300,70.894640,0.149387
786.814500,70.964940,0.148956
787.296600,71.033460,0.148537
787.778700,71.103710,0.148108
788.260800,71.177790,0.147656
788.742900,71.254990,0.147185
789.225000,71.332120,0.146715
789.707200,71.405610,0.146268
790.189300,71.473740,0.145853
790.671400,71.538090,0.145463
791.153500,71.602610,0.145071
791.635600,71.671610,0.144653
792.117700,71.747060,0.144196
792.599900,71.827350,0.143710
793.082000,71.908020,0.143223
793.564100,71.984210,0.142763
794.046200,72.053350,0.142346
794.528300,72.116730,0.141964
795.010400,72.178760,0.141591
795.492600,72.244550,0.141195
795.974700,72.316960,0.140760
796.456800,72.395020,0.140291
796.938900,72.474330,0.139816
797.421000,72.549560,0.139365
797.903100,72.617220,0.138960
798.385300,72.677630,0.138599
798.867400,72.734400,0.138260
799.349500,72.792470,0.137914
799.831600,72.855290,0.137539
800.313700,72.923110,0.137135
800.795800,72.993330,0.136717
801.278000,73.062370,0.136306
801.760100,73.128120,0.135916
802.242200,73.191220,0.135541
802.724300,73.254690,0.135165
803.206400,73.321740,0.134767
803.688500,73.393560,0.134342
804.170700,73.468460,0.133899
804.652800,73.542690,0.133460
805.134900,73.612900,0.133046
805.617000,73.678570,0.132659
806.099100,73.743010,0.132279
806.581200,73.812040,0.131873
807.063400,73.891250,0.131407
807.545500,73.982930,0.130868
808.027600,74.084540,0.130272
808.509700,74.189710,0.129656
808.991800,74.290950,0.129064
809.473900,74.382900,0.128527
809.956100,74.464450,0.128051
810.438200,74.538380,0.127620
810.920300,74.609560,0.127206
811.402400,74.682160,0.126783
811.884500,74.757840,0.126343
812.366600,74.835690,0.125891
812.848800,74.913600,0.125439
813.330900,74.990250,0.124995
813.813000,75.066250,0.124555
814.295100,75.143740,0.124107
814.777200,75.224840,0.123639
815.259300,75.310010,0.123147
815.741500,75.397160,0.122645
816.223600,75.482660,0.122153
816.705700,75.563220,0.121690
817.187800,75.637910,0.121260
817.669900,75.708860,0.120853
818.152000,75.780400,0.120443
818.634200,75.856900,0.120005
819.116300,75.940480,0.119527
819.598400,76.030090,0.119014
820.080500,76.122330,0.118488
820.562600,76.213600,0.117968
821.044700,76.302170,0.117463
821.526900,76.389250,0.116968
822.009000,76.477940,0.116464
822.491100,76.571160,0.115935
822.973200,76.669460,0.115378
823.455300,76.770250,0.114807
823.937400,76.868900,0.114249
824.419600,76.961200,0.113728
824.901700,77.045730,0.113251
825.383800,77.124950,0.112805
825.865900,77.203980,0.112360
826.348000,77.288090,0.111887
826.830100,77.379960,0.111371
827.312300,77.478010,0.110822
827.794400,77.577220,0.110266
828.276500,77.671500,0.109738
828.758600,77.756500,0.109263
829.240700,77.831730,0.108843
829.722800,77.900510,0.108460
830.205000,77.968220,0.108082
830.687100,78.039800,0.107684
831.169200,78.117600,0.107251
831.651300,78.200880,0.106788
832.133400,78.286870,0.106311
832.615500,78.372640,0.105836
833.097700,78.456550,0.105371
833.579800,78.538930,0.104915
834.061900,78.620990,0.104461
834.544000,78.703690,0.104005
835.026100,78.786750,0.103547
835.508200,78.868520,0.103096
835.990400,78.947040,0.102664
836.472500,79.021320,0.102256
836.954600,79.092080,0.101867
837.436700,79.161670,0.101485
837.918800,79.232720,0.101095
838.400900,79.306920,0.100689
838.883100,79.384060,0.100267
839.365200,79.462310,0.099839
839.847300,79.539460,0.099417
840.329400,79.614240,0.099009
840.811500,79.687190,0.098611
841.293600,79.760280,0.098213
841.775800,79.835740,0.097803
842.257900,79.914570,0.097374
842.740000,79.995640,0.096934
843.222100,80.076190,0.096497
843.704200,80.152880,0.096081
844.186300,80.223560,0.095698
844.668500,80.288100,0.095349
845.150600,80.348380,0.095023
845.632700,80.407280,0.094705
846.114800,80.467260,0.094381
846.596900,80.529500,0.094045
847.079000,80.593750,0.093699
847.561200,80.659160,0.093346
848.043300,80.725250,0.092991
848.525400,80.792350,0.092630
849.007500,80.861470,0.092258
849.489600,80.933380,0.091872
849.971700,81.007730,0.091474
850.453900,81.082730,0.091072
850.936000,81.155790,0.090680
851.418100,81.224740,0.090312
851.900200,81.289020,0.089968
852.382300,81.350110,0.089642
852.864400,81.410980,0.089317
853.346600,81.474760,0.088977
853.828700,81.543330,0.088612
854.310800,81.616610,0.088221
854.792900,81.692720,0.087817
855.275000,81.769090,0.087411
855.757100,81.843640,0.087015
856.239300,81.915450,0.086634
856.721400,81.984600,0.086268
857.203500,82.051450,0.085914
857.685600,82.115910,0.085573
858.167700,82.177020,0.085250
858.649800,82.233710,0.084950
859.132000,82.285410,0.084677
859.614100,82.333240,0.084425
860.096200,82.379900,0.084179
860.578300,82.428900,0.083920
861.060400,82.483330,0.083634
861.542500,82.544530,0.083312
862.024700,82.611660,0.082959
862.506800,82.682300,0.082587
862.988900,82.753630,0.082213
863.471000,82.823770,0.081845
863.953100,82.892420,0.081485
864.435200,82.960450,0.081129
864.917400,83.029040,0.080770
865.399500,83.098450,0.080407
865.881600,83.167610,0.080046
866.363700,83.234570,0.079696
866.845800,83.297330,0.079369
867.327900,83.354980,0.079068
867.810100,83.408120,0.078792
868.292200,83.458600,0.078529
868.774300,83.508710,0.078268
869.256400,83.560250,0.078000
869.738500,83.614120,0.077720
870.220600,83.670470,0.077428
