wavenumber,transmittance,absorbance
550.095200,51.292720,0.289944
550.577300,51.476490,0.288391
551.059400,51.536740,0.287883
551.541500,51.480650,0.288356
552.023600,51.398790,0.289047
552.505700,51.524060,0.287990
552.987900,51.741940,0.286157
553.470000,52.115520,0.283033
553.952100,52.625670,0.278802
554.434200,53.172220,0.274315
554.916300,53.676790,0.270213
555.398400,54.061040,0.267116
555.880600,54.320930,0.265033
556.362700,54.598900,0.262816
556.844800,54.844640,0.260866
557.326900,55.101270,0.258838
557.809000,55.395440,0.256526
558.291100,55.722960,0.253966
558.773300,56.230200,0.250030
559.255400,56.436950,0.248436
559.737500,56.653860,0.246770
560.219600,56.800240,0.245650
560.701700,56.900640,0.244883
561.183800,57.009450,0.244053
561.666000,57.257280,0.242169
562.148100,57.486270,0.240436
562.630200,57.727710,0.238616
563.112300,57.940590,0.237017
563.594400,58.202080,0.235061
564.076500,58.363300,0.233860
564.558700,58.416830,0.233462
565.040800,58.402950,0.233565
565.522900,58.379780,0.233738
566.005000,58.387830,0.233678
566.487100,58.432900,0.233343
566.969200,58.499340,0.232849
567.451400,58.567760,0.232341
567.933500,58.625430,0.231914
568.415600,58.674290,0.231552
568.897700,58.877560,0.230050
569.379800,58.978360,0.229307
569.861900,59.107690,0.228356
570.344100,59.212530,0.227586
570.826200,59.251650,0.227300
571.308300,59.281870,0.227078
571.790400,59.147800,0.228061
572.272500,58.839750,0.230329
572.754600,58.569860,0.232326
573.236800,58.137140,0.235546
573.718900,57.780460,0.238219
574.201000,57.568590,0.239814
574.683100,57.527100,0.240128
575.165200,57.629040,0.239359
575.647300,57.795630,0.238105
576.129500,57.918900,0.237180
576.611600,57.914920,0.237210
577.093700,57.754370,0.238415
577.575800,57.468590,0.240569
578.057900,57.122610,0.243192
578.540000,56.796850,0.245676
579.022200,56.555770,0.247523
579.504300,56.424440,0.248533
579.986400,56.381030,0.248867
580.468500,56.366740,0.248977
580.950600,56.318310,0.249350
581.432700,56.200310,0.250261
581.914900,56.023260,0.251632
582.397000,55.843230,0.253029
582.879100,55.739130,0.253840
583.361200,55.780240,0.253520
583.843300,55.998790,0.251821
584.325400,56.376560,0.248901
584.807600,56.851970,0.245254
585.289700,57.342380,0.241524
585.771800,57.766940,0.238321
586.253900,58.071110,0.236040
586.736000,58.242360,0.234761
587.218100,58.437070,0.233312
587.700300,58.678870,0.231518
588.182400,58.976320,0.229322
588.664500,59.294460,0.226986
589.146600,59.581830,0.224886
589.628700,59.802650,0.223280
590.110800,59.955410,0.222172
590.593000,60.071480,0.221332
591.075100,60.193610,0.220450
591.557200,60.349040,0.219330
592.039300,60.533400,0.218005
592.521400,60.717480,0.216686
593.003500,60.869260,0.215602
593.485700,60.976960,0.214834
593.967800,61.057570,0.214260
594.449900,61.148050,0.213617
594.932000,61.283080,0.212659
595.414100,61.473630,0.211311
595.896200,61.698340,0.209727
596.378400,61.915090,0.208203
596.860500,62.083850,0.207021
597.342600,62.189070,0.206286
597.824700,62.247810,0.205876
598.306800,62.302170,0.205497
598.788900,62.397780,0.204831
599.271100,62.560800,0.203698
599.753200,62.786160,0.202136
600.235300,63.043890,0.200357
600.717400,63.298340,0.198608
601.199500,63.528180,0.197034
601.681600,63.735680,0.195617
602.163800,63.941450,0.194218
602.645900,64.167840,0.192683
603.128000,64.422050,0.190965
603.610100,64.688420,0.189173
604.092200,64.935670,0.187517
604.574300,65.134310,0.186190
605.056500,65.274200,0.185258
605.538600,65.372330,0.184606
606.020700,65.466350,0.183982
606.502800,65.595280,0.183127
606.984900,65.778520,0.181916
607.467000,66.004390,0.180427
607.949200,66.236890,0.178900
608.431300,66.434870,0.177604
608.913400,66.574040,0.176695
609.395500,66.658970,0.176141
609.877600,66.719990,0.175744
610.359700,66.796230,0.175248
610.841900,66.914180,0.174482
611.324000,67.073150,0.173451
611.806100,67.247730,0.172322
612.288200,67.403340,0.171319
612.770300,67.516330,0.170591
613.252400,67.585980,0.170143
613.734600,67.633040,0.169841
614.216700,67.685550,0.169504
614.698800,67.761020,0.169020
615.180900,67.856410,0.168409
615.663000,67.951990,0.167798
616.145100,68.026360,0.167323
616.627300,68.073020,0.167025
617.109400,68.107530,0.166805
617.591500,68.161570,0.166460
618.073600,68.265050,0.165802
618.555700,68.428310,0.164764
619.037800,68.635390,0.163452
619.520000,68.852990,0.162077
620.002100,69.048170,0.160848
620.484200,69.205090,0.159862
620.966300,69.330830,0.159074
621.448400,69.449370,0.158332
621.930500,69.585350,0.157482
622.412700,69.748730,0.156464
622.894800,69.927630,0.155351
623.376900,70.094600,0.154315
623.859000,70.220260,0.153538
624.341100,70.287730,0.153120
624.823200,70.299640,0.153047
625.305400,70.275830,0.153194
625.787500,70.242810,0.153398
626.269600,70.221770,0.153528
626.751700,70.221870,0.153528
627.233800,70.241730,0.153405
627.715900,70.276170,0.153192
628.198100,70.323350,0.152900
628.680200,70.386630,0.152510
629.162300,70.471040,0.151989
629.644400,70.576110,0.151342
630.126500,70.690960,0.150636
630.608600,70.795030,0.149997
631.090800,70.865070,0.149568
631.572900,70.884520,0.149449
632.055000,70.850740,0.149656
632.537100,70.775680,0.150116
633.019200,70.679820,0.150705
633.501300,70.581090,0.151312
633.983500,70.485630,0.151899
634.465600,70.384340,0.152524
634.947700,70.258690,0.153300
635.429800,70.091310,0.154336
635.911900,69.876550,0.155669
636.394000,69.625110,0.157234
636.876200,69.359960,0.158891
637.358300,69.106140,0.160483
637.840400,68.880120,0.161906
638.322500,68.685200,0.163137
638.804600,68.515000,0.164214
639.286700,68.362230,0.165184
639.768900,68.227230,0.166042
640.251000,68.120940,0.166719
640.733100,68.060810,0.167103
641.215200,68.062320,0.167093
641.697300,68.131190,0.166654
642.179400,68.261140,0.165826
642.661600,68.438130,0.164702
643.143700,68.647250,0.163377
643.625800,68.879250,0.161912
644.107900,69.131840,0.160322
644.590000,69.406820,0.158598
645.072100,69.704040,0.156742
645.554300,70.017290,0.154795
646.036400,70.333820,0.152836
646.518500,70.638420,0.150959
647.000600,70.919430,0.149235
647.482700,71.173440,0.147682
647.964800,71.406270,0.146264
648.447000,71.629380,0.144909
648.929100,71.852990,0.143555
649.411200,72.080210,0.142184
649.893300,72.305010,0.140832
650.375400,72.515210,0.139571
650.857500,72.698430,0.138475
651.339700,72.848360,0.137580
651.821800,72.967440,0.136871
652.303900,73.065490,0.136288
652.786000,73.154330,0.135760
653.268100,73.241900,0.135240
653.750200,73.329090,0.134724
654.232400,73.410760,0.134240
654.714500,73.480030,0.133831
655.196600,73.533420,0.133515
655.678700,73.573430,0.133279
656.160800,73.607270,0.133079
656.642900,73.642660,0.132871
657.125100,73.682780,0.132634
657.607200,73.723790,0.132392
658.089300,73.756690,0.132199
658.571400,73.771690,0.132110
659.053500,73.763690,0.132157
659.535600,73.735010,0.132326
660.017800,73.694490,0.132565
660.499900,73.652540,0.132812
660.982000,73.616100,0.133027
661.464100,73.585330,0.133209
661.946200,73.554570,0.133390
662.428300,73.516170,0.133617
662.910500,73.465080,0.133919
663.392600,73.401350,0.134296
663.874700,73.329250,0.134723
664.356800,73.253410,0.135172
664.838900,73.174680,0.135639
665.321000,73.088170,0.136153
665.803200,72.983700,0.136774
666.285300,72.849040,0.137576
666.767400,72.676620,0.138605
667.249500,72.473250,0.139822
667.731600,72.266290,0.141064
668.213700,72.092730,0.142109
668.695900,71.971880,0.142837
669.178000,71.890980,0.143326
669.660100,71.819140,0.143760
670.142200,71.728690,0.144307
670.624300,71.604800,0.145058
671.106400,71.445410,0.146026
671.588600,71.257610,0.147169
672.070700,71.053090,0.148417
672.552800,70.842970,0.149703
673.034900,70.632780,0.150994
673.517000,70.420630,0.152300
673.999100,70.199380,0.153667
674.481300,69.962300,0.155136
674.963400,69.708180,0.156716
675.445500,69.443470,0.158369
675.927600,69.180150,0.160019
676.409700,68.930500,0.161589
676.891800,68.702220,0.163029
677.374000,68.496630,0.164331
677.856100,68.311240,0.165508
678.338200,68.144590,0.166569
678.820300,68.000190,0.167490
679.302400,67.886680,0.168215
679.784500,67.813790,0.168682
680.266700,67.786740,0.168855
680.748800,67.802380,0.168755
681.230900,67.849990,0.168450
681.713000,67.916690,0.168023
682.195100,67.994200,0.167528
682.677200,68.082660,0.166963
683.159400,68.189880,0.166280
683.641500,68.326130,0.165413
684.123600,68.497440,0.164326
684.605700,68.701240,0.163035
685.087800,68.926970,0.161611
685.569900,69.161000,0.160139
686.052100,69.392810,0.158686
686.534200,69.618960,0.157272
687.016300,69.842780,0.155878
687.498400,70.070550,0.154464
687.980500,70.306190,0.153006
688.462600,70.547850,0.151516
688.944800,70.788230,0.150039
689.426900,71.017840,0.148633
689.909000,71.229810,0.147338
690.391100,71.422450,0.146165
690.873200,71.599130,0.145092
691.355300,71.765340,0.144085
691.837500,71.925130,0.143119
692.319600,72.078830,0.142192
692.801700,72.223590,0.141321
693.283800,72.356100,0.140525
693.765900,72.476020,0.139806
694.248000,72.587800,0.139136
694.730200,72.700070,0.138465
695.212300,72.822630,0.137734
695.694400,72.962840,0.136898
696.176500,73.123320,0.135944
696.658600,73.302280,0.134883
697.140700,73.496000,0.133736
697.622900,73.702290,0.132519
698.105000,73.922230,0.131225
698.587100,74.159850,0.129831
699.069200,74.419570,0.128313
699.551300,74.702910,0.126662
700.033400,75.007100,0.124898
700.515600,75.325460,0.123058
700.997700,75.650220,0.121190
701.479800,75.975320,0.119327
701.961900,76.298160,0.117486
702.444000,76.619040,0.115663
702.926100,76.938980,0.113854
703.408300,77.257250,0.112061
703.890400,77.569790,0.110307
704.372500,77.869770,0.108631
704.854600,78.149480,0.107074
705.336700,78.402760,0.105669
705.818800,78.626620,0.104430
706.301000,78.821580,0.103355
706.783100,78.990590,0.102425
707.265200,79.137570,0.101617
707.747300,79.266140,0.100912
708.229400,79.378960,0.100295
708.711500,79.477930,0.099753
709.193700,79.564710,0.099280
709.675800,79.641000,0.098863
710.157900,79.708470,0.098496
710.640000,79.767720,0.098173
711.122100,79.818030,0.097899
711.604200,79.857100,0.097686
712.086400,79.881740,0.097552
712.568500,79.889030,0.097513
713.050600,79.877560,0.097575
713.532700,79.847840,0.097737
714.014800,79.802270,0.097985
714.496900,79.744120,0.098301
714.979100,79.676400,0.098670
715.461200,79.601140,0.099081
715.943300,79.519240,0.099528
716.425400,79.431200,0.100009
716.907500,79.338040,0.100519
717.389600,79.241870,0.101045
717.871800,79.146000,0.101571
718.353900,79.053970,0.102076
718.836000,78.968550,0.102546
719.318100,78.890690,0.102974
719.800200,78.819230,0.103368
720.282300,78.751450,0.103741
720.764500,78.684220,0.104112
721.246600,78.614750,0.104496
721.728700,78.541140,0.104903
722.210800,78.462150,0.105340
722.692900,78.376780,0.105813
723.175000,78.284140,0.106326
723.657200,78.183730,0.106884
724.139300,78.075930,0.107483
724.621400,77.962350,0.108115
725.103500,77.845700,0.108765
725.585600,77.728950,0.109417
726.067700,77.613960,0.110060
726.549900,77.500560,0.110695
727.032000,77.386460,0.111335
727.514100,77.268460,0.111998
727.996200,77.144150,0.112697
728.478300,77.013740,0.113432
728.960400,76.880740,0.114182
729.442600,76.751330,0.114914
729.924700,76.632620,0.115586
730.406800,76.530820,0.116164
730.888900,76.450180,0.116621
731.371000,76.393520,0.116943
731.853100,76.363760,0.117113
732.335300,76.365840,0.117101
732.817400,76.407650,0.116863
733.299500,76.499140,0.116343
733.781600,76.650110,0.115487
734.263700,76.867430,0.114258
734.745800,77.153000,0.112647
735.228000,77.503300,0.110680
735.710100,77.910570,0.108404
736.192200,78.364250,0.105882
736.674300,78.852330,0.103185
737.156400,79.361600,0.100390
737.638500,79.877630,0.097575
738.120700,80.385020,0.094825
738.602800,80.868690,0.092220
739.084900,81.315860,0.089825
739.567000,81.717950,0.087683
740.049100,82.071670,0.085807
740.531300,82.378780,0.084185
741.013400,82.644740,0.082785
741.495500,82.876370,0.081569
741.977600,83.080270,0.080502
742.459700,83.261630,0.079555
742.941800,83.424070,0.078709
743.424000,83.570270,0.077948
743.906100,83.702620,0.077261
744.388200,83.823710,0.076633
744.870300,83.936160,0.076051
745.352400,84.042300,0.075502
745.834500,84.143540,0.074979
746.316700,84.240330,0.074480
746.798800,84.332530,0.074005
747.280900,84.420040,0.073554
747.763000,84.503360,0.073126
748.245100,84.583840,0.072713
748.727200,84.663320,0.072305
749.209400,84.743570,0.071893
749.691500,84.825710,0.071472
750.173600,84.909950,0.071041
750.655700,84.995960,0.070602
751.137800,85.083320,0.070156
751.619900,85.172070,0.069703
752.102100,85.262760,0.069241
752.584200,85.356340,0.068764
753.066300,85.453450,0.068270
753.548400,85.554210,0.067759
754.030500,85.658000,0.067232
754.512600,85.763800,0.066696
754.994800,85.870650,0.066155
755.476900,85.978130,0.065612
755.959000,86.086150,0.065067
756.441100,86.194810,0.064519
756.923200,86.303800,0.063970
757.405300,86.412170,0.063425
757.887500,86.518230,0.062892
758.369600,86.620160,0.062381
758.851700,86.716460,0.061898
759.333800,86.806490,0.061448
759.815900,86.890560,0.061027
760.298000,86.969850,0.060631
760.780200,87.045970,0.060251
761.262300,87.120680,0.059879
761.744400,87.195570,0.059506
762.226500,87.272020,0.059125
762.708600,87.351050,0.058732
763.190700,87.433400,0.058323
763.672900,87.519230,0.057897
764.155000,87.607990,0.057456
764.637100,87.698430,0.057008
765.119200,87.788780,0.056561
765.601300,87.877200,0.056124
766.083400,87.962310,0.055703
766.565600,88.043640,0.055302
767.047700,88.121700,0.054917
767.529800,88.197670,0.054543
768.011900,88.272960,0.054172
768.494000,88.348730,0.053800
768.976100,88.425530,0.053422
769.458300,88.503220,0.053041
769.940400,88.581050,0.052659
770.422500,88.657910,0.052283
770.904600,88.732420,0.051918
771.386700,88.803220,0.051571
771.868800,88.869230,0.051249
772.351000,88.929750,0.050953
772.833100,88.984910,0.050684
773.315200,89.035860,0.050435
773.797300,89.084490,0.050198
774.279400,89.132950,0.049962
774.761500,89.182940,0.049718
775.243700,89.234950,0.049465
775.725800,89.288090,0.049206
776.207900,89.340300,0.048953
776.690000,89.389270,0.048715
777.172100,89.433400,0.048500
777.654200,89.472670,0.048310
778.136400,89.508610,0.048135
778.618500,89.543930,0.047964
779.100600,89.581330,0.047782
779.582700,89.622460,0.047583
780.064800,89.667290,0.047366
780.546900,89.714290,0.047138
781.029100,89.760910,0.046913
781.511200,89.804710,0.046701
781.993300,89.844140,0.046510
782.475400,89.879050,0.046342
782.957500,89.910450,0.046190
783.439600,89.940250,0.046046
783.921800,89.970470,0.045900
784.403900,90.003150,0.045742
784.886000,90.039810,0.045565
785.368100,90.081490,0.045364
785.850200,90.128430,0.045138
786.332300,90.179990,0.044890
786.814500,90.234430,0.044628
787.296600,90.289010,0.044365
787.778700,90.340440,0.044118
788.260800,90.385740,0.043900
788.742900,90.423120,0.043721
789.225000,90.452610,0.043579
789.707200,90.476090,0.043466
790.189300,90.496570,0.043368
790.671400,90.517170,0.043269
791.153500,90.540050,0.043159
791.635600,90.565960,0.043035
792.117700,90.594180,0.042900
792.599900,90.623420,0.042760
793.082000,90.652510,0.042620
793.564100,90.681210,0.042483
794.046200,90.710190,0.042344
794.528300,90.740600,0.042198
795.010400,90.773440,0.042041
795.492600,90.808840,0.041872
795.974700,90.846040,0.041694
796.456800,90.883470,0.041515
796.938900,90.919490,0.041343
797.421000,90.952840,0.041184
797.903100,90.982830,0.041041
798.385300,91.009280,0.040914
798.867400,91.032170,0.040805
799.349500,91.051440,0.040713
799.831600,91.066970,0.040639
800.313700,91.078720,0.040583
800.795800,91.087010,0.040544
801.278000,91.092510,0.040517
801.760100,91.096150,0.040500
802.242200,91.098750,0.040488
802.724300,91.100840,0.040478
803.206400,91.102560,0.040469
803.688500,91.103900,0.040463
804.170700,91.105060,0.040458
804.652800,91.106850,0.040449
805.134900,91.110460,0.040432
805.617000,91.117200,0.040400
806.099100,91.127770,0.040349
806.581200,91.141810,0.040282
807.063400,91.157560,0.040207
807.545500,91.172340,0.040137
808.027600,91.183170,0.040085
808.509700,91.187740,0.040064
808.991800,91.185040,0.040076
809.473900,91.175450,0.040122
809.956100,91.160550,0.040193
810.438200,91.142390,0.040280
810.920300,91.122810,0.040373
811.402400,91.103110,0.040467
811.884500,91.083620,0.040560
812.366600,91.064040,0.040653
812.848800,91.043460,0.040751
813.330900,91.020840,0.040859
813.813000,90.995220,0.040981
814.295100,90.965860,0.041122
814.777200,90.932690,0.041280
815.259300,90.896110,0.041455
815.741500,90.857240,0.041640
816.223600,90.817470,0.041831
816.705700,90.778230,0.042018
817.187800,90.740470,0.042199
817.669900,90.704280,0.042372
818.152000,90.668880,0.042542
818.634200,90.632840,0.042714
819.116300,90.594570,0.042898
819.598400,90.552960,0.043097
820.080500,90.507740,0.043314
820.562600,90.459620,0.043545
821.044700,90.409920,0.043784
821.526900,90.359900,0.044024
822.009000,90.310200,0.044263
822.491100,90.260480,0.044502
822.973200,90.209490,0.044748
823.455300,90.155530,0.045008
823.937400,90.097130,0.045289
824.419600,90.033420,0.045596
824.901700,89.964550,0.045929
825.383800,89.891360,0.046282
825.865900,89.814930,0.046651
826.348000,89.736100,0.047033
826.830100,89.655110,0.047425
827.312300,89.571560,0.047830
827.794400,89.484630,0.048252
828.276500,89.393650,0.048693
828.758600,89.298310,0.049157
829.240700,89.198890,0.049641
829.722800,89.096080,0.050141
830.205000,88.990430,0.050657
830.687100,88.882020,0.051186
831.169200,88.770110,0.051733
831.651300,88.653230,0.052305
832.133400,88.529620,0.052911
832.615500,88.397820,0.053558
833.097700,88.256970,0.054251
833.579800,88.107180,0.054989
834.061900,87.949200,0.055768
834.544000,87.783880,0.056585
835.026100,87.611530,0.057439
835.508200,87.431380,0.058333
835.990400,87.241560,0.059277
836.472500,87.039330,0.060284
836.954600,86.821560,0.061372
837.436700,86.585400,0.062555
837.918800,86.328330,0.063847
838.400900,86.048360,0.065257
838.883100,85.743640,0.066798
839.365200,85.412190,0.068480
839.847300,85.051520,0.070318
840.329400,84.658550,0.072329
840.811500,84.229550,0.074536
841.293600,83.759900,0.076964
841.775800,83.243900,0.079648
842.257900,82.674290,0.082630
842.740000,82.042060,0.085963
843.222100,81.336880,0.089712
843.704200,80.548020,0.093945
844.186300,79.666670,0.098723
844.668500,78.688500,0.104089
845.150600,77.616570,0.110046
845.632700,76.463790,0.116544
846.114800,75.254230,0.123469
846.596900,74.023480,0.130631
847.079000,72.817660,0.137763
847.561200,71.691800,0.144531
848.043300,70.706810,0.150539
848.525400,69.924810,0.155369
849.007500,69.401890,0.158629
849.489600,69.179210,0.160024
849.971700,69.274700,0.159425
850.453900,69.678680,0.156900
850.936000,70.355220,0.152704
851.418100,71.249150,0.147220
851.900200,72.295590,0.140888
852.382300,73.428570,0.134135
852.864400,74.587020,0.127337
853.346600,75.717700,0.120803
853.828700,76.776300,0.114773
854.310800,77.728160,0.109422
854.792900,78.548540,0.104862
855.275000,79.222560,0.101151
855.757100,79.744380,0.098300
856.239300,80.115330,0.096284
856.721400,80.341450,0.095060
857.203500,80.430980,0.094577
857.685600,80.392240,0.094786
858.167700,80.232000,0.095652
858.649800,79.955160,0.097154
859.132000,79.564910,0.099278
859.614100,79.063760,0.102023
860.096200,78.454510,0.105382
860.578300,77.740980,0.109350
861.060400,76.928200,0.113914
861.542500,76.022380,0.119059
862.024700,75.030970,0.124759
862.506800,73.963700,0.130981
862.988900,72.834790,0.137661
863.471000,71.665840,0.144688
863.953100,70.488240,0.151883
864.435200,69.343630,0.158993
864.917400,68.281490,0.165697
865.399500,67.354100,0.171636
865.881600,66.610570,0.176457
866.363700,66.092080,0.179851
866.845800,65.829300,0.181581
867.327900,65.841840,0.181498
867.810100,66.137850,0.179550
868.292200,66.712860,0.175790
868.774300,67.547750,0.170389
869.256400,68.607910,0.163626
869.738500,69.845380,0.155862
870.220600,71.204410,0.147493
