wavenumber,transmittance,absorbance
550.095200,46.494870,0.332595
550.577300,46.729090,0.330413
551.059400,46.948750,0.328376
551.541500,47.083510,0.327131
552.023600,47.128190,0.326719
552.505700,47.048920,0.327450
552.987900,47.018300,0.327733
553.470000,47.037800,0.327553
553.952100,47.134600,0.326660
554.434200,47.298400,0.325154
554.916300,47.493700,0.323364
555.398400,47.701610,0.321467
555.880600,47.854160,0.320080
556.362700,47.940280,0.319299
556.844800,47.922690,0.319459
557.326900,47.827890,0.320319
557.809000,47.690300,0.321570
558.291100,47.556950,0.322786
558.773300,47.415780,0.324077
559.255400,47.328210,0.324880
559.737500,47.302980,0.325111
560.219600,47.262240,0.325486
560.701700,47.170640,0.326328
561.183800,47.044870,0.327488
561.666000,46.907110,0.328761
562.148100,46.733140,0.330375
562.630200,46.591300,0.331695
563.112300,46.547040,0.332108
563.594400,46.600440,0.331610
564.076500,46.828030,0.329494
564.558700,47.139130,0.326618
565.040800,47.436340,0.323889
565.522900,47.664610,0.321804
566.005000,47.791390,0.320650
566.487100,47.837610,0.320231
566.969200,47.861460,0.320014
567.451400,47.900200,0.319663
567.933500,47.932240,0.319372
568.415600,47.872640,0.319913
568.897700,47.756040,0.320972
569.379800,47.565460,0.322708
569.861900,47.274920,0.325369
570.344100,46.927240,0.328575
570.826200,46.606950,0.331549
571.308300,46.378990,0.333679
571.790400,46.298930,0.334429
572.272500,46.348400,0.333965
572.754600,46.449000,0.333024
573.236800,46.570180,0.331892
573.718900,46.619550,0.331432
574.201000,46.569140,0.331902
574.683100,46.453250,0.332984
575.165200,46.320350,0.334228
575.647300,46.212890,0.335237
576.129500,46.162560,0.335710
576.611600,46.191640,0.335437
577.093700,46.280010,0.334607
577.575800,46.372180,0.333742
578.057900,46.414200,0.333349
578.540000,46.402560,0.333458
579.022200,46.373750,0.333728
579.504300,46.375210,0.333714
579.986400,46.440420,0.333104
580.468500,46.573050,0.331865
580.950600,46.746020,0.330255
581.432700,46.921960,0.328624
581.914900,47.068630,0.327268
582.397000,47.172150,0.326314
582.879100,47.221810,0.325857
583.361200,47.212160,0.325946
583.843300,47.147770,0.326539
584.325400,47.045350,0.327483
584.807600,46.925400,0.328592
585.289700,46.815690,0.329609
585.771800,46.755860,0.330164
586.253900,46.795750,0.329794
586.736000,46.966160,0.328215
587.218100,46.879430,0.329018
587.700300,46.958430,0.328286
588.182400,47.168530,0.326348
588.664500,47.412460,0.324108
589.146600,47.584750,0.322532
589.628700,47.624940,0.322166
590.110800,47.544480,0.322900
590.593000,47.414840,0.324086
591.075100,47.324160,0.324917
591.557200,47.323200,0.324926
592.039300,47.395430,0.324264
592.521400,47.471860,0.323564
593.003500,47.476600,0.323520
593.485700,47.374540,0.324455
593.967800,47.192390,0.326128
594.449900,47.005450,0.327852
594.932000,46.896310,0.328861
595.414100,46.908970,0.328744
595.896200,47.024610,0.327675
596.378400,47.174070,0.326297
596.860500,47.278020,0.325341
597.342600,47.289550,0.325235
597.824700,47.217640,0.325896
598.306800,47.119530,0.326799
598.788900,47.067320,0.327281
599.271100,47.106250,0.326921
599.753200,47.229760,0.325784
600.235300,47.384990,0.324359
600.717400,47.505350,0.323257
601.199500,47.547510,0.322872
601.681600,47.514130,0.323177
602.163800,47.449820,0.323765
602.645900,47.414430,0.324089
603.128000,47.448490,0.323778
603.610100,47.551290,0.322838
604.092200,47.684130,0.321626
604.574300,47.796240,0.320606
605.056500,47.855800,0.320065
605.538600,47.869120,0.319945
606.020700,47.876030,0.319882
606.502800,47.924080,0.319446
606.984900,48.036140,0.318432
607.467000,48.191980,0.317025
607.949200,48.337840,0.315713
608.431300,48.416880,0.315003
608.913400,48.403340,0.315125
609.395500,48.320510,0.315868
609.877600,48.231780,0.316667
610.359700,48.207600,0.316884
610.841900,48.285590,0.316182
611.324000,48.447630,0.314727
611.806100,48.629210,0.313103
612.288200,48.755810,0.311974
612.770300,48.783410,0.311728
613.252400,48.722370,0.312272
613.734600,48.630760,0.313089
614.216700,48.580010,0.313542
614.698800,48.612990,0.313248
615.180900,48.719220,0.312300
615.663000,48.842930,0.311198
616.145100,48.917360,0.310537
616.627300,48.904270,0.310653
617.109400,48.816060,0.311437
617.591500,48.708270,0.312397
618.073600,48.645540,0.312957
618.555700,48.661940,0.312811
619.037800,48.741570,0.312100
619.520000,48.830370,0.311310
620.002100,48.870690,0.310952
620.484200,48.835410,0.311265
620.966300,48.743800,0.312081
621.448400,48.649780,0.312919
621.930500,48.610180,0.313273
622.412700,48.651260,0.312906
622.894800,48.754250,0.311988
623.376900,48.868500,0.310971
623.859000,48.941600,0.310322
624.341100,48.949180,0.310255
624.823200,48.907360,0.310626
625.305400,48.862140,0.311028
625.787500,48.861640,0.311032
626.269600,48.927920,0.310443
626.751700,49.045550,0.309400
627.233800,49.172310,0.308279
627.715900,49.264100,0.307469
628.198100,49.298690,0.307165
628.680200,49.286380,0.307273
629.162300,49.262240,0.307486
629.644400,49.265240,0.307459
630.126500,49.316190,0.307010
630.608600,49.407430,0.306208
631.090800,49.509330,0.305313
631.572900,49.589200,0.304613
632.055000,49.630690,0.304250
632.537100,49.643380,0.304139
633.019200,49.657050,0.304019
633.501300,49.704020,0.303608
633.983500,49.799870,0.302772
634.465600,49.933650,0.301607
634.947700,50.073740,0.300390
635.429800,50.185360,0.299423
635.911900,50.249310,0.298870
636.394000,50.271670,0.298677
636.876200,50.278690,0.298616
637.358300,50.300330,0.298429
637.840400,50.352240,0.297981
638.322500,50.427100,0.297336
638.804600,50.500750,0.296702
639.286700,50.547760,0.296298
639.768900,50.557580,0.296214
640.251000,50.541520,0.296352
640.733100,50.526640,0.296480
641.215200,50.540250,0.296363
641.697300,50.594000,0.295901
642.179400,50.677960,0.295181
642.661600,50.766630,0.294422
643.143700,50.833970,0.293846
643.625800,50.867770,0.293557
644.107900,50.876090,0.293486
644.590000,50.881940,0.293436
645.072100,50.909430,0.293202
645.554300,50.969800,0.292687
646.036400,51.055220,0.291960
646.518500,51.143710,0.291208
647.000600,51.212040,0.290628
647.482700,51.248720,0.290317
647.964800,51.260630,0.290216
648.447000,51.269020,0.290145
648.929100,51.297070,0.289907
649.411200,51.356560,0.289404
649.893300,51.441440,0.288687
650.375400,51.531880,0.287924
650.857500,51.605840,0.287301
651.339700,51.651540,0.286917
651.821800,51.673610,0.286731
652.303900,51.689980,0.286594
652.786000,51.720920,0.286334
653.268100,51.777000,0.285863
653.750200,51.853250,0.285224
654.232400,51.932480,0.284561
654.714500,51.995340,0.284036
655.196600,52.031730,0.283732
655.678700,52.046470,0.283609
656.160800,52.056470,0.283525
656.642900,52.080780,0.283323
657.125100,52.129700,0.282915
657.607200,52.199370,0.282335
658.089300,52.274890,0.281707
658.571400,52.339580,0.281170
659.053500,52.384970,0.280793
659.535600,52.416180,0.280535
660.017800,52.448930,0.280263
660.499900,52.500320,0.279838
660.982000,52.578910,0.279188
661.464100,52.679620,0.278357
661.946200,52.786130,0.277480
662.428300,52.878930,0.276717
662.910500,52.944410,0.276180
663.392600,52.980370,0.275885
663.874700,52.994710,0.275767
664.356800,52.998670,0.275735
664.838900,52.999450,0.275729
665.321000,52.996680,0.275751
665.803200,52.984020,0.275855
666.285300,52.955480,0.276089
666.767400,52.914960,0.276422
667.249500,52.885530,0.276663
667.731600,52.906900,0.276488
668.213700,53.010240,0.275640
668.695900,53.188310,0.274184
669.178000,53.398030,0.272475
669.660100,53.592410,0.270897
670.142200,53.744200,0.269668
670.624300,53.848270,0.268828
671.106400,53.914600,0.268294
671.588600,53.960250,0.267926
672.070700,54.002400,0.267587
672.552800,54.052220,0.267186
673.034900,54.111260,0.266712
673.517000,54.172610,0.266220
673.999100,54.226930,0.265785
674.481300,54.269430,0.265445
674.963400,54.303780,0.265170
675.445500,54.340610,0.264875
675.927600,54.391410,0.264470
676.409700,54.461630,0.263909
676.891800,54.546920,0.263230
677.374000,54.635240,0.262527
677.856100,54.713590,0.261905
678.338200,54.775170,0.261416
678.820300,54.822940,0.261038
679.302400,54.867850,0.260682
679.784500,54.921920,0.260254
680.266700,54.991490,0.259705
680.748800,55.072970,0.259062
681.230900,55.154760,0.258417
681.713000,55.223870,0.257873
682.195100,55.273380,0.257484
682.677200,55.306560,0.257223
683.159400,55.335310,0.256998
683.641500,55.374210,0.256692
684.123600,55.432870,0.256233
684.605700,55.511390,0.255618
685.087800,55.600840,0.254919
685.569900,55.688900,0.254231
686.052100,55.766610,0.253626
686.534200,55.832680,0.253112
687.016300,55.893010,0.252643
687.498400,55.956100,0.252153
687.980500,56.027200,0.251601
688.462600,56.104680,0.251001
688.944800,56.181000,0.250411
689.426900,56.247580,0.249896
689.909000,56.300550,0.249487
690.391100,56.343680,0.249155
690.873200,56.386980,0.248821
691.355300,56.441560,0.248401
691.837500,56.513610,0.247847
692.319600,56.600890,0.247177
692.801700,56.694020,0.246463
693.283800,56.781540,0.245793
693.765900,56.856000,0.245224
694.248000,56.917530,0.244754
694.730200,56.973030,0.244331
695.212300,57.031650,0.243884
695.694400,57.099000,0.243371
696.176500,57.173860,0.242802
696.658600,57.248850,0.242233
697.140700,57.315150,0.241731
697.622900,57.368120,0.241329
698.105000,57.410560,0.241008
698.587100,57.451830,0.240696
699.069200,57.503250,0.240308
699.551300,57.572040,0.239788
700.033400,57.657540,0.239144
700.515600,57.751540,0.238436
700.997700,57.842740,0.237751
701.479800,57.922580,0.237152
701.961900,57.989170,0.236653
702.444000,58.047620,0.236216
702.926100,58.106560,0.235775
703.408300,58.172980,0.235279
703.890400,58.248590,0.234715
704.372500,58.329260,0.234114
704.854600,58.408160,0.233526
705.336700,58.480090,0.232992
705.818800,58.544650,0.232513
706.301000,58.606330,0.232055
706.783100,58.671580,0.231572
707.265200,58.744610,0.231032
707.747300,58.824750,0.230440
708.229400,58.906580,0.229836
708.711500,58.983180,0.229272
709.193700,59.050240,0.228778
709.675800,59.108710,0.228349
710.157900,59.164600,0.227938
710.640000,59.225480,0.227491
711.122100,59.296620,0.226970
711.604200,59.377990,0.226375
712.086400,59.464290,0.225744
712.568500,59.547940,0.225133
713.050600,59.623040,0.224586
713.532700,59.688140,0.224112
714.014800,59.746430,0.223688
714.496900,59.803270,0.223275
714.979100,59.862840,0.222843
715.461200,59.925660,0.222387
715.943300,59.988710,0.221930
716.425400,60.047800,0.221503
716.907500,60.100620,0.221121
717.389600,60.148720,0.220774
717.871800,60.197240,0.220423
718.353900,60.252280,0.220027
718.836000,60.317920,0.219554
719.318100,60.394060,0.219006
719.800200,60.476860,0.218411
720.282300,60.561100,0.217806
720.764500,60.643140,0.217218
721.246600,60.722650,0.216649
721.728700,60.801900,0.216083
722.210800,60.883280,0.215502
722.692900,60.966810,0.214907
723.175000,61.049240,0.214320
723.657200,61.125470,0.213778
724.139300,61.191650,0.213308
724.621400,61.247930,0.212909
725.103500,61.299280,0.212545
725.585600,61.353620,0.212160
726.067700,61.417940,0.211705
726.549900,61.494670,0.211163
727.032000,61.580280,0.210558
727.514100,61.666950,0.209948
727.996200,61.746840,0.209385
728.478300,61.816140,0.208898
728.960400,61.877220,0.208469
729.442600,61.937260,0.208048
729.924700,62.004490,0.207577
730.406800,62.083790,0.207022
730.888900,62.174060,0.206391
731.371000,62.269120,0.205727
731.853100,62.360910,0.205088
732.335300,62.443760,0.204511
732.817400,62.516850,0.204003
733.299500,62.583850,0.203538
733.781600,62.650150,0.203078
734.263700,62.719360,0.202598
734.745800,62.791030,0.202102
735.228000,62.861160,0.201618
735.710100,62.925140,0.201176
736.192200,62.980880,0.200791
736.674300,63.030860,0.200447
737.156400,63.081170,0.200100
737.638500,63.138690,0.199704
738.120700,63.207380,0.199232
738.602800,63.286380,0.198690
739.084900,63.370570,0.198112
739.567000,63.453590,0.197544
740.049100,63.531310,0.197012
740.531300,63.603890,0.196516
741.013400,63.675320,0.196029
741.495500,63.750400,0.195517
741.977600,63.831740,0.194963
742.459700,63.917790,0.194378
742.941800,64.003590,0.193796
743.424000,64.083660,0.193253
743.906100,64.155240,0.192768
744.388200,64.220200,0.192328
744.870300,64.284190,0.191896
745.352400,64.353680,0.191427
745.834500,64.432430,0.190895
746.316700,64.519380,0.190310
746.798800,64.609250,0.189705
747.280900,64.695480,0.189126
747.763000,64.773740,0.188601
748.245100,64.844120,0.188129
748.727200,64.910900,0.187682
749.209400,64.979930,0.187221
749.691500,65.055210,0.186718
750.173600,65.136700,0.186174
750.655700,65.220380,0.185617
751.137800,65.300670,0.185082
751.619900,65.373590,0.184598
752.102100,65.438740,0.184165
752.584200,65.499470,0.183762
753.066300,65.560710,0.183356
753.548400,65.626150,0.182923
754.030500,65.696420,0.182458
754.512600,65.769020,0.181979
754.994800,65.840380,0.181508
755.476900,65.908250,0.181060
755.959000,65.973240,0.180632
756.441100,66.038560,0.180202
756.923200,66.107970,0.179746
757.405300,66.183420,0.179251
757.887500,66.263830,0.178723
758.369600,66.345600,0.178188
758.851700,66.424860,0.177669
759.333800,66.499640,0.177181
759.815900,66.571170,0.176714
760.298000,66.642830,0.176247
760.780200,66.718070,0.175757
761.262300,66.797830,0.175238
761.744400,66.879640,0.174706
762.226500,66.958820,0.174192
762.708600,67.031060,0.173724
763.190700,67.095100,0.173309
763.672900,67.153840,0.172929
764.155000,67.213040,0.172546
764.637100,67.278600,0.172123
765.119200,67.353230,0.171642
765.601300,67.435270,0.171113
766.083400,67.519430,0.170571
766.565600,67.599910,0.170054
767.047700,67.673410,0.169582
767.529800,67.740930,0.169149
768.011900,67.807080,0.168725
768.494000,67.877460,0.168274
768.976100,67.955520,0.167775
769.458300,68.040760,0.167231
769.940400,68.129170,0.166667
770.422500,68.215630,0.166116
770.904600,68.296730,0.165600
771.386700,68.372460,0.165119
771.868800,68.445810,0.164653
772.351000,68.520350,0.164180
772.833100,68.597820,0.163690
773.315200,68.676780,0.163190
773.797300,68.753280,0.162707
774.279400,68.823360,0.162264
774.761500,68.885860,0.161870
775.243700,68.943550,0.161506
775.725800,69.002440,0.161136
776.207900,69.068920,0.160717
776.690000,69.146530,0.160230
777.172100,69.234300,0.159679
777.654200,69.327180,0.159096
778.136400,69.418680,0.158524
778.618500,69.504120,0.157989
779.100600,69.582660,0.157499
779.582700,69.657090,0.157035
780.064800,69.731730,0.156570
780.546900,69.809600,0.156085
781.029100,69.890500,0.155582
781.511200,69.971210,0.155081
781.993300,70.047610,0.154607
782.475400,70.117330,0.154175
782.957500,70.181560,0.153777
783.439600,70.244750,0.153386
783.921800,70.312490,0.152968
784.403900,70.388670,0.152497
784.886000,70.473500,0.151974
785.368100,70.563520,0.151420
785.850200,70.653600,0.150866
786.332300,70.739610,0.150337
786.814500,70.820500,0.149841
787.296600,70.898450,0.149363
787.778700,70.977240,0.148881
788.260800,71.059840,0.148376
788.742900,71.146580,0.147846
789.225000,71.234930,0.147307
789.707200,71.321050,0.146782
790.189300,71.401770,0.146291
790.671400,71.476350,0.145838
791.153500,71.546450,0.145412
791.635600,71.614960,0.144996
792.117700,71.684110,0.144577
792.599900,71.754360,0.144152
793.082000,71.824570,0.143727
793.564100,71.893490,0.143310
794.046200,71.961360,0.142901
794.528300,72.030620,0.142483
795.010400,72.105000,0.142035
795.492600,72.187420,0.141538
795.974700,72.277770,0.140995
796.456800,72.372260,0.140428
796.938900,72.464490,0.139875
797.421000,72.548280,0.139373
797.903100,72.620540,0.138941
798.385300,72.682690,0.138569
798.867400,72.739990,0.138227
799.349500,72.798870,0.137875
799.831600,72.863940,0.137487
800.313700,72.935820,0.137059
800.795800,73.011370,0.136610
801.278000,73.085690,0.136168
801.760100,73.154790,0.135757
802.242200,73.217600,0.135385
802.724300,73.276150,0.135037
803.206400,73.333980,0.134695
803.688500,73.394100,0.134339
804.170700,73.457600,0.133963
804.652800,73.523590,0.133573
805.134900,73.590590,0.133178
805.617000,73.658030,0.132780
806.099100,73.726970,0.132374
806.581200,73.799570,0.131946
807.063400,73.877300,0.131489
807.545500,73.959510,0.131006
808.027600,74.042960,0.130516
808.509700,74.123220,0.130046
808.991800,74.196910,0.129614
809.473900,74.263560,0.129224
809.956100,74.326260,0.128858
810.438200,74.390050,0.128485
810.920300,74.459370,0.128081
811.402400,74.535630,0.127636
811.884500,74.616260,0.127167
812.366600,74.696090,0.126702
812.848800,74.769980,0.126273
813.330900,74.835570,0.125892
813.813000,74.894610,0.125549
814.295100,74.951900,0.125217
814.777200,75.013020,0.124863
815.259300,75.081380,0.124468
815.741500,75.156840,0.124031
816.223600,75.236150,0.123573
816.705700,75.315090,0.123118
817.187800,75.391040,0.122680
817.669900,75.464370,0.122258
818.152000,75.538030,0.121834
818.634200,75.615670,0.121388
819.116300,75.699260,0.120908
819.598400,75.787820,0.120401
820.080500,75.877770,0.119885
820.562600,75.964930,0.119387
821.044700,76.046660,0.118920
821.526900,76.123180,0.118483
822.009000,76.197050,0.118062
822.491100,76.271540,0.117637
822.973200,76.348430,0.117200
823.455300,76.427010,0.116753
823.937400,76.504500,0.116313
824.419600,76.577970,0.115896
824.901700,76.646220,0.115509
825.383800,76.710780,0.115144
825.865900,76.775320,0.114778
826.348000,76.843630,0.114392
826.830100,76.917580,0.113974
827.312300,76.995920,0.113532
827.794400,77.074970,0.113087
828.276500,77.150510,0.112661
828.758600,77.220110,0.112270
829.240700,77.284480,0.111908
829.722800,77.347200,0.111555
830.205000,77.413010,0.111186
830.687100,77.485440,0.110780
831.169200,77.565320,0.110332
831.651300,77.650440,0.109856
832.133400,77.737000,0.109372
832.615500,77.821310,0.108901
833.097700,77.901340,0.108455
833.579800,77.977100,0.108033
834.061900,78.049780,0.107628
834.544000,78.120740,0.107234
835.026100,78.190630,0.106845
835.508200,78.259290,0.106464
835.990400,78.326630,0.106091
836.472500,78.393280,0.105721
836.954600,78.461020,0.105346
837.436700,78.532200,0.104952
837.918800,78.608340,0.104531
838.400900,78.689220,0.104085
838.883100,78.772470,0.103626
839.365200,78.854500,0.103174
839.847300,78.932110,0.102746
840.329400,79.004010,0.102351
840.811500,79.071390,0.101981
841.293600,79.137250,0.101619
841.775800,79.204790,0.101249
842.257900,79.275860,0.100859
842.740000,79.350110,0.100452
843.222100,79.425490,0.100040
843.704200,79.499620,0.099635
844.186300,79.571140,0.099244
844.668500,79.640390,0.098867
845.150600,79.708980,0.098493
845.632700,79.778530,0.098114
846.114800,79.849430,0.097728
846.596900,79.920510,0.097342
847.079000,79.989780,0.096965
847.561200,80.055850,0.096607
848.043300,80.119100,0.096264
848.525400,80.181980,0.095923
849.007500,80.247890,0.095566
849.489600,80.319530,0.095179
849.971700,80.397220,0.094759
850.453900,80.478350,0.094321
850.936000,80.558490,0.093889
851.418100,80.633380,0.093485
851.900200,80.700860,0.093122
852.382300,80.761890,0.092794
852.864400,80.819990,0.092481
853.346600,80.879580,0.092161
853.828700,80.943890,0.091816
854.310800,81.013900,0.091440
854.792900,81.088140,0.091043
855.275000,81.164130,0.090636
855.757100,81.239710,0.090232
856.239300,81.314070,0.089834
856.721400,81.387740,0.089441
857.203500,81.461460,0.089048
857.685600,81.535280,0.088654
858.167700,81.607910,0.088268
858.649800,81.677260,0.087899
859.132000,81.741560,0.087557
859.614100,81.800660,0.087243
860.096200,81.856440,0.086947
860.578300,81.912200,0.086651
861.060400,81.971370,0.086338
861.542500,82.035880,0.085996
862.024700,82.105620,0.085627
862.506800,82.178730,0.085241
862.988900,82.252860,0.084849
863.471000,82.326550,0.084460
863.953100,82.399870,0.084073
864.435200,82.474020,0.083683
864.917400,82.550250,0.083282
865.399500,82.628450,0.082870
865.881600,82.706790,0.082459
866.363700,82.782160,0.082063
866.845800,82.851480,0.081700
867.327900,82.913140,0.081377
867.810100,82.967800,0.081090
868.292200,83.018000,0.080828
868.774300,83.067120,0.080571
869.256400,83.117940,0.080305
869.738500,83.171780,0.080024
870.220600,83.228500,0.079728
